# energy,mu_vm,pi_pi0,pi_pi_pi,pi0_e_ve,pi0_mu_vm,pi_pi0_pi0
2.468382355356611e-02,3.847219320739123e-08,9.459573052431011e-09,5.076216261887710e-09,0.000000000000000e+00,1.311220838689318e-09,5.509132142365539e-10
2.514365826174708e-02,3.991821708050288e-08,9.815168044085793e-09,5.267065235749486e-09,0.000000000000000e+00,1.360513822637114e-09,5.716255140425156e-10
2.561205922622092e-02,4.141857750567376e-08,1.018412765202029e-08,5.465088684186787e-09,0.000000000000000e+00,1.411659587643397e-09,5.931164268636054e-10
2.608918602769255e-02,4.297531546407138e-08,1.056695402358397e-08,5.670556266538263e-09,0.000000000000000e+00,1.464727757327355e-09,6.154152168901199e-10
2.657520121969428e-02,4.459054855443475e-08,1.096416816494475e-08,5.883747774891879e-09,0.000000000000000e+00,1.519790570644837e-09,6.385522479064777e-10
2.707027038396657e-02,4.626647386667553e-08,1.137631064888359e-08,6.104953514683307e-09,0.000000000000000e+00,1.576922980075263e-09,6.625590245910197e-10
2.757456218687054e-02,4.800537096310749e-08,1.180394234912648e-08,6.334474699581472e-09,0.000000000000000e+00,1.636202753491557e-09,6.874682353660075e-10
2.808824843685128e-02,4.980960497132792e-08,1.224764520220736e-08,6.572623861197098e-09,0.000000000000000e+00,1.697710579851137e-09,7.133137968559680e-10
2.861150414297174e-02,5.168162979292292e-08,1.270802299789224e-08,6.819725274170062e-09,0.000000000000000e+00,1.761530178851018e-09,7.401309000146802e-10
2.914450757453700e-02,5.362399143232530e-08,1.318570219923377e-08,7.076115397212388e-09,0.000000000000000e+00,1.827748414695567e-09,7.679560579833747e-10
2.968744032182927e-02,5.563933145031348e-08,1.368133279336516e-08,7.342143330705101e-09,0.000000000000000e+00,1.896455414130931e-09,7.968271557450661e-10
3.024048735797437e-02,5.773039054680865e-08,1.419558917418357e-08,7.618171291469716e-09,0.000000000000000e+00,1.967744688905899e-09,8.267835016423349e-10
3.080383710196066e-02,5.990001227779924e-08,1.472917105811650e-08,7.904575105358252e-09,0.000000000000000e+00,2.041713262824994e-09,8.578658808284364e-10
3.137768148283203e-02,6.215114691140279e-08,1.528280443420879e-08,8.201744718329944e-09,0.000000000000000e+00,2.118461803565741e-09,8.901166107242173e-10
3.196221600507661e-02,6.448685542826007e-08,1.585724254981428e-08,8.510084726707553e-09,0.000000000000000e+00,2.198094759438448e-09,9.235795985559938e-10
3.255763981523378e-02,6.691031367165257e-08,1.645326693322400e-08,8.830014927332450e-09,0.000000000000000e+00,2.280720501273629e-09,9.583004010524335e-10
3.316415576974183e-02,6.942481665293103e-08,1.707168845461252e-08,9.161970888364327e-09,0.000000000000000e+00,2.366451469628926e-09,9.943262863813330e-10
3.378197050404964e-02,7.203378301805406e-08,1.771334842673543e-08,9.506404541499339e-09,0.000000000000000e+00,2.455404327514729e-09,1.031706298410245e-09
3.441129450301591e-02,7.474075968124959e-08,1.837911974686463e-08,9.863784796409559e-09,0.000000000000000e+00,2.547700118844997e-09,1.070491323378051e-09
3.505234217261966e-02,7.754942663203576e-08,1.906990808150347e-08,1.023459817823649e-08,0.000000000000000e+00,2.643464432827613e-09,1.110734159067807e-09
3.570533191300684e-02,8.046360192206987e-08,1.978665309548087e-08,1.061934948900272e-08,0.000000000000000e+00,2.742827574516452e-09,1.152489586574609e-09
3.637048619289757e-02,8.348724683853478e-08,2.053032972708399e-08,1.101856249383793e-08,0.000000000000000e+00,2.845924741755843e-09,1.195814444765689e-09
3.704803162537961e-02,8.662447127102006e-08,2.130194951095002e-08,1.143278063294923e-08,0.000000000000000e+00,2.952896208756496e-09,1.240767707533629e-09
3.773819904511368e-02,8.987953927911528e-08,2.210256195050216e-08,1.186256776030030e-08,0.000000000000000e+00,3.063887516551050e-09,1.287410563947294e-09
3.844122358697718e-02,9.325687486819953e-08,2.293325594178151e-08,1.230850891000018e-08,0.000000000000000e+00,3.179049670586579e-09,1.335806501409089e-09
3.915734476617283e-02,9.676106798119004e-08,2.379516125059537e-08,1.277121109143972e-08,0.000000000000000e+00,3.298539345721012e-09,1.386021391931098e-09
3.988680655982973e-02,1.003968807142999e-07,2.468945004497373e-08,1.325130411425271e-08,0.000000000000000e+00,3.422519098900366e-09,1.438123581646946e-09
4.062985749012454e-02,1.041692537651547e-07,2.561733848500052e-08,1.374944144421882e-08,0.000000000000000e+00,3.551157589804072e-09,1.492183983680578e-09
4.138675070895111e-02,1.080833131219268e-07,2.658008837216250e-08,1.426630109126730e-08,0.000000000000000e+00,3.684629809756290e-09,1.548276174497632e-09
4.215774408416748e-02,1.121443770024670e-07,2.757900886043893e-08,1.480258653078393e-08,0.000000000000000e+00,3.823117319212303e-09,1.606476493869871e-09
4.294310028744946e-02,1.163579630527483e-07,2.861545823143736e-08,1.535902765946816e-08,0.000000000000000e+00,3.966808494140586e-09,1.666864148587900e-09
4.374308688378100e-02,1.207297958142770e-07,2.969084573596739e-08,1.593638178703436e-08,0.000000000000000e+00,4.115898781633019e-09,1.729521320062548e-09
4.455797642261148e-02,1.252658144704909e-07,3.080663350453214e-08,1.653543466509963e-08,0.000000000000000e+00,4.270590965088232e-09,1.794533275960476e-09
4.538804653071132e-02,1.299721808825288e-07,3.196433852931096e-08,1.715700155464991e-08,0.000000000000000e+00,4.431095439325781e-09,1.861988486025022e-09
4.623358000675737e-02,1.348552879251455e-07,3.316553472030069e-08,1.780192833352940e-08,0.000000000000000e+00,4.597630496002353e-09,1.931978742238972e-09
4.709486491768023e-02,1.399217681339413e-07,3.441185503838381e-08,1.847109264545109e-08,0.000000000000000e+00,4.770422619714750e-09,2.004599283491712e-09
4.797219469680657e-02,1.451785026754918e-07,3.570499370819319e-08,1.916540509208275e-08,0.000000000000000e+00,4.949706795189087e-09,2.079948924919386e-09
4.886586824382964e-02,1.506326306523892e-07,3.704670851375087e-08,1.988581046982083e-08,0.000000000000000e+00,5.135726825970207e-09,2.158130192092885e-09
4.977619002664212e-02,1.562915587556535e-07,3.843882317996827e-08,2.063328905292458e-08,0.000000000000000e+00,5.328735665040849e-09,2.239249460235097e-09
5.070347018506616e-02,1.621629712774313e-07,3.988322984321013e-08,2.140885792474531e-08,0.000000000000000e+00,5.528995757816127e-09,2.323417098655549e-09
5.164802463651556e-02,1.682548404973770e-07,4.138189161424357e-08,2.221357235885055e-08,0.000000000000000e+00,5.736779397975359e-09,2.410747620597631e-09
5.261017518362659e-02,1.745754374566074e-07,4.293684523701648e-08,2.304852725190993e-08,0.000000000000000e+00,5.952369096610594e-09,2.501359838700905e-09
5.359024962389364e-02,1.811333431336323e-07,4.455020384683763e-08,2.391485861027921e-08,0.000000000000000e+00,6.176057965188823e-09,2.595377026288438e-09
5.458858186134753e-02,1.879374600371984e-07,4.622415983166386e-08,2.481374509229132e-08,0.000000000000000e+00,6.408150112843668e-09,2.692927084697115e-09
5.560551202031390e-02,1.949970242315297e-07,4.796098780033593e-08,2.574640960833809e-08,0.000000000000000e+00,6.648961058531024e-09,2.794142716876795e-09
5.664138656129118e-02,2.023216178100273e-07,4.976304766174813e-08,2.671412098090401e-08,0.000000000000000e+00,6.898818158603581e-09,2.899161607492808e-09
5.769655839898705e-02,2.099211818340755e-07,5.163278781908495e-08,2.771819566679412e-08,0.000000000000000e+00,7.158061050379275e-09,3.008126609774872e-09
5.877138702255383e-02,2.178060297542190e-07,5.357274848340926e-08,2.875999954388173e-08,0.000000000000000e+00,7.427042112300367e-09,3.121185939364650e-09
5.986623861806373e-02,2.259868613316160e-07,5.558556511104756e-08,2.984094976478820e-08,0.000000000000000e+00,7.706126941301894e-09,3.238493375423542e-09
6.098148619326578e-02,2.344747770783216e-07,5.767397196938114e-08,3.096251667999697e-08,0.000000000000000e+00,7.995694848031302e-09,3.360208469272102e-09
6.211750970466668e-02,2.432812932356513e-07,5.984080583582325e-08,3.212622583299760e-08,0.000000000000000e+00,8.296139370584758e-09,3.486496760842427e-09
6.327469618697920e-02,2.524183573105732e-07,6.208900983493872e-08,3.333366003015182e-08,0.000000000000000e+00,8.607868807450526e-09,3.617530003235602e-09
6.445343988498201e-02,2.618983641908191e-07,6.442163741884705e-08,3.458646148807431e-08,0.000000000000000e+00,8.931306770375186e-09,3.753486395686894e-09
6.565414238783589e-02,2.717341728601586e-07,6.684185649623901e-08,3.588633406142457e-08,0.000000000000000e+00,9.266892757895331e-09,3.894550825252852e-09
6.687721276590221e-02,2.819391237360766e-07,6.935295371553466e-08,3.723504555411468e-08,0.000000000000000e+00,9.615082750304518e-09,4.040915117546044e-09
6.812306771011009e-02,2.925270566529052e-07,7.195833890791501e-08,3.863443011704872e-08,0.000000000000000e+00,9.976349826854172e-09,4.192778296855389e-09
6.939213167391992e-02,3.035123295143120e-07,7.466154969617119e-08,4.008639073562687e-08,0.000000000000000e+00,1.035118480601662e-08,4.350346856002495e-09
7.068483701793145e-02,3.149098376399227e-07,7.746625627553483e-08,4.159290181036619e-08,0.000000000000000e+00,1.074009690966889e-08,4.513835036297583e-09
7.200162415718582e-02,3.267350338317645e-07,8.037626637288116e-08,4.315601183411610e-08,0.000000000000000e+00,1.114361445208816e-08,4.683465117971990e-09
7.334294171121170e-02,3.390039491871644e-07,8.339553039093234e-08,4.477784616947486e-08,0.000000000000000e+00,1.156228555468227e-08,4.859467721478353e-09
7.470924665686654e-02,3.517332146857029e-07,8.652814674433233e-08,4.646060993014844e-08,0.000000000000000e+00,1.199667888741346e-08,5.042082120064018e-09
7.610100448402522e-02,3.649400835788463e-07,8.977836739471983e-08,4.820659097013173e-08,0.000000000000000e+00,1.244738443790812e-08,5.231556564038409e-09
7.751868935416906e-02,3.786424546119240e-07,9.315060359218800e-08,5.001816298473673e-08,0.000000000000000e+00,1.291501430928321e-08,5.428148617170667e-09
7.896278426192883e-02,3.928588961091956e-07,9.664943183078982e-08,5.189778872764102e-08,0.000000000000000e+00,1.340020354775693e-08,5.632125505669977e-09
8.043378119963768e-02,4.076086709539007e-07,1.002796000260353e-07,5.384802334828698e-08,0.000000000000000e+00,1.390361100115170e-08,5.843764480218112e-09
8.193218132494906e-02,4.229117624963185e-07,1.040460339226147e-07,5.587151785412043e-08,0.000000000000000e+00,1.442592020943776e-08,6.063353191540757e-09
8.345849513157751e-02,4.387889014241008e-07,1.079538437408872e-07,5.797102270232701e-08,0.000000000000000e+00,1.496784032850870e-08,6.291190080022611e-09
8.501324262321996e-02,4.552615936303754e-07,1.120083310709896e-07,6.014939152589422e-08,0.000000000000000e+00,1.553010708842373e-08,6.527584779889728e-09
8.659695349071718e-02,4.723521491164204e-07,1.162149960237437e-07,6.240958499901070e-08,0.000000000000000e+00,1.611348378739741e-08,6.772858538502169e-09
8.821016729251541e-02,4.900837119670504e-07,1.205795446478800e-07,6.475467484699565e-08,0.000000000000000e+00,1.671876232286488e-08,7.027344651320139e-09
8.985343363848994e-02,5.084802914382477e-07,1.251078966234456e-07,6.718784800614827e-08,0.000000000000000e+00,1.734676426099940e-08,7.291388913127571e-09
9.152731237719304e-02,5.275667941980092e-07,1.298061932416230e-07,6.971241093910344e-08,0.000000000000000e+00,1.799834194610995e-08,7.565350086118972e-09
9.323237378659024e-02,5.473690577628809e-07,1.346808056815713e-07,7.233179411149060e-08,0.000000000000000e+00,1.867437965139937e-08,7.849600385477573e-09
9.496919876834969e-02,5.679138851741811e-07,1.397383435952778e-07,7.504955663590436e-08,0.000000000000000e+00,1.937579477261782e-08,8.144525983096333e-09
9.673837904575107e-02,5.892290809595311e-07,1.449856640118243e-07,7.786939108942138e-08,0.000000000000000e+00,2.010353906620323e-08,8.450527530117294e-09
9.854051736528126e-02,6.113434884269628e-07,1.504298805728816e-07,8.079512851112615e-08,0.000000000000000e+00,2.085859993355891e-08,8.768020698989944e-09
1.003762277019856e-01,6.342870283405847e-07,1.560783731116834e-07,8.383074358635038e-08,0.000000000000000e+00,2.164200175317891e-08,9.097436745775074e-09
1.022461354686444e-01,6.580907390285774e-07,1.619387975881785e-07,8.698036002457739e-08,0.000000000000000e+00,2.245480726239533e-08,9.439223093447645e-09
1.041508777288467e-01,6.827868179761178e-07,1.680190963935248e-07,9.024825613822117e-08,0.000000000000000e+00,2.329811899058658e-08,9.793843936979959e-09
1.060911034140331e-01,7.084086649577513e-07,1.743275090375720e-07,9.363887062975630e-08,0.000000000000000e+00,2.417308074575318e-08,1.016178087101531e-08
1.080674735445812e-01,7.349909267656957e-07,1.808725832334779e-07,9.715680859495187e-08,0.000000000000000e+00,2.508087915643819e-08,1.054353354097244e-08
1.100806614550113e-01,7.625695435926035e-07,1.876631863941210e-07,1.008068477502498e-07,0.000000000000000e+00,2.602274527104138e-08,1.093962031845198e-08
1.121313530233854e-01,7.911817971294434e-07,1.947085175555077e-07,1.045939448926239e-07,0.000000000000000e+00,2.699995621665226e-08,1.135057900184832e-08
1.142202469049817e-01,8.208663604413227e-07,2.020181197429292e-07,1.085232426005670e-07,0.000000000000000e+00,2.801383691960424e-08,1.177696754310386e-08
1.163480547703204e-01,8.516633496863742e-07,2.096018927961944e-07,1.126000761851700e-07,0.000000000000000e+00,2.906576189003368e-08,1.221936480157705e-08
1.185155015476250e-01,8.836143777451561e-07,2.174701066708679e-07,1.168299809005904e-07,0.000000000000000e+00,3.015715707281130e-08,1.267837132603147e-08
1.207233256698000e-01,9.167626098304523e-07,2.256334152330494e-07,1.212186994235494e-07,0.000000000000000e+00,3.128950176729908e-08,1.315461016579062e-08
1.229722793260089e-01,9.511528211498794e-07,2.341028705658813e-07,1.257721896118562e-07,0.000000000000000e+00,3.246433061847769e-08,1.364872771214129e-08
1.252631287179402e-01,9.868314566963140e-07,2.428899378066237e-07,1.304966325523205e-07,0.000000000000000e+00,3.368323568208072e-08,1.416139457110864e-08
1.275966543208457e-01,1.023846693243837e-06,2.520065105338278e-07,1.353984409088051e-07,0.000000000000000e+00,3.494786856646932e-08,1.469330646876735e-08
1.299736511494435e-01,1.062248503629698e-06,2.614649267248477e-07,1.404842675815600e-07,0.000000000000000e+00,3.625994265408131e-08,1.524518519029603e-08
1.323949290287729e-01,1.102088723405687e-06,2.712779853046642e-07,1.457610146893943e-07,0.000000000000000e+00,3.762123540539101e-08,1.581777955402699e-08
1.348613128700960e-01,1.143421119945270e-06,2.814589633077585e-07,1.512358428866665e-07,0.000000000000000e+00,3.903359074842490e-08,1.641186642178881e-08
1.373736429519388e-01,1.186301464095981e-06,2.920216336755616e-07,1.569161810275159e-07,0.000000000000000e+00,4.049892155698820e-08,1.702825174688777e-08
1.399327752063676e-01,1.230787604469709e-06,3.029802837128239e-07,1.628097361902161e-07,0.000000000000000e+00,4.201921222087362e-08,1.766777166112319e-08
1.425395815105991e-01,1.276939544466878e-06,3.143497342270905e-07,1.689245040750021e-07,0.000000000000000e+00,4.359652131144134e-08,1.833129360228302e-08
1.451949499840419e-01,1.324819522133902e-06,3.261453593763519e-07,1.752687797892213e-07,0.000000000000000e+00,4.523298434608468e-08,1.901971748361957e-08
1.478997852908725e-01,1.374492092956899e-06,3.383831072508392e-07,1.818511690341594e-07,0.000000000000000e+00,4.693081665522255e-08,1.973397690686015e-08
1.506550089482475e-01,1.426024215698219e-06,3.510795212158760e-07,1.886805997084264e-07,0.000000000000000e+00,4.869231635559267e-08,2.047504042036418e-08
1.534615596402577e-01,1.479485341386257e-06,3.642517620436720e-07,1.957663339433328e-07,0.000000000000000e+00,5.051986743375672e-08,2.124391282409835e-08
1.563203935377306e-01,1.534947505572829e-06,3.779176308629476e-07,2.031179805862520e-07,0.000000000000000e+00,5.241594294387192e-08,2.204163652316175e-08
1.592324846239907e-01,1.592485423976525e-06,3.920955929563223e-07,2.107455081485541e-07,0.000000000000000e+00,5.438310832392814e-08,2.286929293165729e-08
1.621988250266884e-01,1.652176591634620e-06,4.068048024364800e-07,2.186592582353044e-07,0.000000000000000e+00,5.642402483480566e-08,2.372800392877083e-08
1.652204253558104e-01,1.714101385690447e-06,4.220651278332361e-07,2.268699594745501e-07,0.000000000000000e+00,5.854145312666316e-08,2.461893336898817e-08
1.682983150479869e-01,1.778343171947664e-06,4.378971786247955e-07,2.353887419646718e-07,0.000000000000000e+00,6.073825693733169e-08,2.554328864845065e-08
1.714335427172132e-01,1.844988415327456e-06,4.543223327476760e-07,2.442271522589581e-07,0.000000000000000e+00,6.301740692755820e-08,2.650232232952315e-08
1.746271765121044e-01,1.914126794369505e-06,4.713627651210235e-07,2.533971689072545e-07,0.000000000000000e+00,6.538198465811794e-08,2.749733382572419e-08
1.778803044798057e-01,1.985851319922555e-06,4.890414772223103e-07,2.629112185752749e-07,0.000000000000000e+00,6.783518671399710e-08,2.852967114924668e-08
1.811940349366820e-01,2.060258458175496e-06,5.073823277527520e-07,2.727821927629092e-07,0.000000000000000e+00,7.038032898103362e-08,2.960073272337904e-08
1.845694968459130e-01,2.137448258185191e-06,5.264100644321339e-07,2.830234651436467e-07,0.000000000000000e+00,7.302085108060071e-08,3.071196926222079e-08
1.880078402021224e-01,2.217524484062765e-06,5.461503569641741e-07,2.936489095480384e-07,0.000000000000000e+00,7.576032096811688e-08,3.186488572017434e-08
1.915102364231726e-01,2.300594751985711e-06,5.666298312150009e-07,3.046729186149623e-07,0.000000000000000e+00,7.860243970137648e-08,3.306104331378485e-08
1.950778787492576e-01,2.386770672209044e-06,5.878761046488631e-07,3.161104231353232e-07,0.000000000000000e+00,8.155104638490973e-08,3.430206161859422e-08
1.987119826494319e-01,2.476167996254767e-06,6.099178230667477e-07,3.279769121137166e-07,0.000000000000000e+00,8.461012329680460e-08,3.558962074377206e-08
2.024137862357107e-01,2.568906769465129e-06,6.327846986952157e-07,3.402884535745153e-07,0.000000000000000e+00,8.778380120465586e-08,3.692546358738733e-08
2.061845506848860e-01,2.665111489111654e-06,6.565075496744408e-07,3.530617161398061e-07,0.000000000000000e+00,9.107636487754187e-08,3.831139817528821e-08
2.100255606682000e-01,2.764911268258564e-06,6.811183409961947e-07,3.663139914075993e-07,0.000000000000000e+00,9.449225880118261e-08,3.974930008666632e-08
2.139381247890229e-01,2.868440005586067e-06,7.066502269442956e-07,3.800632171597701e-07,0.000000000000000e+00,9.803609310368565e-08,4.124111496949239e-08
2.179235760286844e-01,2.975836561386164e-06,7.331375950919273e-07,3.943280014302609e-07,0.000000000000000e+00,1.017126496995506e-07,4.278886114912681e-08
2.219832722006102e-01,3.087244939950875e-06,7.606161119121342e-07,4.091276474651874e-07,0.000000000000000e+00,1.055268886598829e-07,4.439463233352794e-08
2.261185964129192e-01,3.202814478580452e-06,7.891227700598186e-07,4.244821796076339e-07,0.000000000000000e+00,1.094839548170438e-07,4.606060041860584e-08
2.303309575396379e-01,3.322700043446919e-06,8.186959373855938e-07,4.404123701411200e-07,0.000000000000000e+00,1.135891846122652e-07,4.778901839739667e-08
2.346217907006933e-01,3.447062232556335e-06,8.493754077440004e-07,4.569397671269507e-07,0.000000000000000e+00,1.178481131950548e-07,4.958222337686699e-08
2.389925577508476e-01,3.576067586061621e-06,8.812024536607859e-07,4.740867232719410e-07,0.000000000000000e+00,1.222664817835386e-07,5.144263970629423e-08
2.434447477777411e-01,3.709888804186207e-06,9.142198809262060e-07,4.918764258643181e-07,0.000000000000000e+00,1.268502452952060e-07,5.337278222131333e-08
2.479798776092130e-01,3.848704973027861e-06,9.484720851836886e-07,5.103329278169872e-07,0.000000000000000e+00,1.316055802578647e-07,5.537525960786576e-08
2.525994923300739e-01,3.992701798521020e-06,9.840051105856089e-07,5.294811798587595e-07,0.000000000000000e+00,1.365388930109588e-07,5.745277789044140e-08
2.573051658085038e-01,4.142071848845495e-06,1.020866710590436e-06,5.493470639155906e-07,0.000000000000000e+00,1.416568282077618e-07,5.960814404916175e-08
2.620985012322582e-01,4.297014805579204e-06,1.059106410978126e-06,5.699574277254327e-07,0.000000000000000e+00,1.469662776293322e-07,6.184426977041592e-08
