# energy,pi_pi_pi0,pi_pi_a,mu_mu
2.633263662475576e-02,3.573587040589546e-08,7.450197545633977e-09,1.694662483409144e-12
2.682318705555524e-02,3.707914059776821e-08,7.730220353354729e-09,1.758335864185222e-12
2.732287594554460e-02,3.847289158807719e-08,8.020765338549339e-09,1.824400584448200e-12
2.783187353499096e-02,3.991901983488901e-08,8.322227727551376e-09,1.892946394112009e-12
2.835035323556569e-02,4.141949300595470e-08,8.635017582978209e-09,1.964066408091490e-12
2.887849168942449e-02,4.297635265047862e-08,8.959560360157464e-09,2.037857232271343e-12
2.941646882938806e-02,4.459171697101380e-08,9.296297484392979e-09,2.114419094179561e-12
2.996446794024389e-02,4.626778369922878e-08,9.645686949849036e-09,2.193855978540428e-12
3.052267572118994e-02,4.800683307943172e-08,1.000820394086074e-08,2.276275767888609e-12
3.109128234944175e-02,4.981123096388158e-08,1.038434147650848e-08,2.361790388432582e-12
3.167048154502433e-02,5.168343202406723e-08,1.077461107932556e-08,2.450515961362638e-12
3.226047063677114e-02,5.362598308229063e-08,1.117954346904063e-08,2.542572959805846e-12
3.286145062955256e-02,5.564152656805237e-08,1.159968928228971e-08,2.638086371637940e-12
3.347362627275678e-02,5.773280410390526e-08,1.203561981926800e-08,2.737185868369748e-12
3.409720613004628e-02,5.990266022561535e-08,1.248792781832708e-08,2.840005980333885e-12
3.473240265041402e-02,6.215404624165079e-08,1.295722825956105e-08,2.946686278405741e-12
3.537943224056314e-02,6.449002423720537e-08,1.344415919846376e-08,3.057371562501452e-12
3.603851533863518e-02,6.691377122815764e-08,1.394938263077954e-08,3.172212057104423e-12
3.670987648931163e-02,6.942858347056770e-08,1.447358538971137e-08,3.291363614081384e-12
3.739374442031470e-02,7.203788093152284e-08,1.501748007669436e-08,3.414987923058418e-12
3.809035212033308e-02,7.474521192735843e-08,1.558180602698616e-08,3.543252729637493e-12
3.879993691839948e-02,7.755425793550596e-08,1.616733031137377e-08,3.676332061744316e-12
3.952274056474684e-02,8.046883858645243e-08,1.677484877534334e-08,3.814406464409004e-12
4.025900931317082e-02,8.349291684253582e-08,1.740518711711018e-08,3.957663243292201e-12
4.100899400492666e-02,8.663060437055278e-08,1.805920200595798e-08,4.106296717280807e-12
4.177295015418889e-02,8.988616711541327e-08,1.873778224238987e-08,4.260508480489252e-12
4.255113803510310e-02,9.326403108234600e-08,1.944184996164980e-08,4.420507674014844e-12
4.334382277045939e-02,9.676878833543805e-08,2.017236188223061e-08,4.586511267808242e-12
4.415127442201774e-02,1.004052032205804e-07,2.093031060104506e-08,4.758744353033604e-12
4.497376808251603e-02,1.041782188211925e-07,2.171672593699804e-08,4.937440445306551e-12
4.581158396939206e-02,1.080929636554075e-07,2.253267632476308e-08,5.122841799212399e-12
4.666500752025155e-02,1.121547586237266e-07,2.337927026063252e-08,5.315199734521861e-12
4.753432949011459e-02,1.163691242164798e-07,2.425765780238061e-08,5.514774974536663e-12
4.841984605047370e-02,1.207417879907824e-07,2.516903212514988e-08,5.721837997013467e-12
4.932185889019725e-02,1.252786923270323e-07,2.611463113544638e-08,5.936669398130727e-12
5.024067531831258e-02,1.299860024753692e-07,2.709573914540574e-08,6.159560269980365e-12
5.117660836870394e-02,1.348701149028990e-07,2.811368860957300e-08,6.390812592083496e-12
5.212997690676072e-02,1.399376659528927e-07,2.916986192652087e-08,6.630739637447898e-12
5.310110573801256e-02,1.451955408275808e-07,3.026569330771833e-08,6.879666393703699e-12
5.409032571878811e-02,1.506508829065960e-07,3.140267071614989e-08,7.137929999873451e-12
5.509797386893538e-02,1.563111034135645e-07,3.258233787727822e-08,7.405880199352917e-12
5.612439348664183e-02,1.621838914438086e-07,3.380629636503915e-08,7.683879809700089e-12
5.716993426539346e-02,1.682772243666024e-07,3.507620776565668e-08,7.972305209851505e-12
5.823495241311290e-02,1.745993786159245e-07,3.639379592216949e-08,8.271546845407781e-12
5.931981077351663e-02,1.811589408841581e-07,3.776084926266569e-08,8.582009752653259e-12
6.042487894973318e-02,1.879648197337377e-07,3.917922321533495e-08,8.904114101999243e-12
6.155053343022418e-02,1.950262576422829e-07,4.065084271356017e-08,9.238295761565105e-12
6.269715771705114e-02,2.023528434973422e-07,4.217770479439068e-08,9.585006881637522e-12
6.386514245653173e-02,2.099545255574643e-07,4.376188129386156e-08,9.944716500775116e-12
6.505488557233004e-02,2.178416248969311e-07,4.540552164275152e-08,1.031791117435336e-11
6.626679240102623e-02,2.260248493521277e-07,4.711085576650416e-08,1.070509562637373e-11
6.750127583021169e-02,2.345153079881883e-07,4.888019709317419e-08,1.110679342539058e-11
6.875875643915666e-02,2.433245261052454e-07,5.071594567340238e-08,1.152354768544045e-11
7.003966264209856e-02,2.524644608043231e-07,5.262059141657072e-08,1.195592179289024e-11
7.134443083419942e-02,2.619475171336521e-07,5.459671744744088e-08,1.240450016015393e-11
7.267350554022250e-02,2.717865648369569e-07,5.664700358773829e-08,1.286988900726180e-11
7.402733956597855e-02,2.819949557260491e-07,5.877422996730703e-08,1.335271717230155e-11
7.540639415259334e-02,2.925865417008971e-07,6.098128076963124e-08,1.385363695178760e-11
7.681113913364906e-02,3.035756934411826e-07,6.327114811669438e-08,1.437332497205263e-11
7.824205309525316e-02,3.149773197942507e-07,6.564693609832984e-08,1.491248309279507e-11
7.969962353908895e-02,3.268068878852642e-07,6.811186495140574e-08,1.547183934395684e-11
8.118434704850386e-02,3.390804439763374e-07,7.066927539438197e-08,1.605214889714781e-11
8.269672945769177e-02,3.518146351023945e-07,7.332263312298113e-08,1.665419507287726e-11
8.423728602402668e-02,3.650267315125240e-07,7.607553347292336e-08,1.727879038489744e-11
8.580654160360722e-02,3.787346499466638e-07,7.893170625589532e-08,1.792677762301149e-11
8.740503083007120e-02,3.929569777785342e-07,8.189502077514735e-08,1.859903097574622e-11
8.903329829674120e-02,4.077129980568817e-07,8.496949102734570e-08,1.929645719433984e-11
9.069189874216355e-02,4.230227154782663e-07,8.815928109755168e-08,2.001999679954746e-11
9.238139723910350e-02,4.389068833258491e-07,9.146871075444721e-08,2.077062533281962e-11
9.410236938706137e-02,4.553870314098936e-07,9.490226125318740e-08,2.154935465346546e-11
9.585540150837492e-02,4.724854950470089e-07,9.846458135353018e-08,2.235723428346895e-11
9.764109084797504e-02,4.902254451165140e-07,1.021604935611706e-07,2.319535280168601e-11
9.946004577686263e-02,5.086309192337072e-07,1.059950006004969e-07,2.406483928921167e-11
1.013128859993760e-01,5.277268540812844e-07,1.099732921272828e-07,2.496686482776992e-11
1.032002427643195e-01,5.475391189416517e-07,1.141007516901437e-07,2.590264405304441e-11
1.051227590800254e-01,5.680945504744429e-07,1.183829639499004e-07,2.687343676493600e-11
1.070810899334218e-01,5.894209887851679e-07,1.228257221663282e-07,2.788054959680305e-11
1.090759025131820e-01,6.115473148325999e-07,1.274350359621150e-07,2.892533774581356e-11
1.111078764370306e-01,6.345034892242355e-07,1.322171393742048e-07,3.000920676661224e-11
1.131777039832840e-01,6.583205924509698e-07,1.371784992030732e-07,3.113361443058391e-11
1.152860903267047e-01,6.830308666139839e-07,1.423258236708630e-07,3.230007265307404e-11
1.174337537787491e-01,7.086677586987798e-07,1.476660713997045e-07,3.351014949101085e-11
1.196214260322904e-01,7.352659654532815e-07,1.532064607219515e-07,3.476547121345791e-11
1.218498524109016e-01,7.628614799290116e-07,1.589544793344917e-07,3.606772444771557e-11
1.241197921227808e-01,7.914916397464733e-07,1.649178943097241e-07,3.741865840368000e-11
1.264320185194088e-01,8.211951771481068e-07,1.711047624762549e-07,3.882008717926409e-11
1.287873193590230e-01,8.520122709044694e-07,1.775234411828285e-07,4.027389214978058e-11
1.311864970750017e-01,8.839846001416906e-07,1.841825994595026e-07,4.178202444428971e-11
1.336303690492466e-01,9.171554001606912e-07,1.910912295905735e-07,4.334650751201724e-11
1.361197678906590e-01,9.515695203212349e-07,1.982586591142830e-07,4.496943978205585e-11
1.386555417188033e-01,9.872734840665033e-07,2.056945632648794e-07,4.665299741967445e-11
1.412385544528547e-01,1.024315551166622e-06,2.134089778731546e-07,4.839943718267377e-11
1.438696861059307e-01,1.062745782262418e-06,2.214123127421718e-07,5.021109938134586e-11
1.465498330849044e-01,1.102616105793593e-06,2.297153655154770e-07,5.209041094571598e-11
1.492799084958036e-01,1.143980387398542e-06,2.383293360557257e-07,5.403988860387232e-11
1.520608424548998e-01,1.186894501876212e-06,2.472658413522810e-07,5.606214217531863e-11
1.548935824055910e-01,1.231416407803594e-06,2.565369309770069e-07,5.815987798341937e-11
1.577790934411895e-01,1.277606224905878e-06,2.661551031081708e-07,6.033590239114448e-11
1.607183586337211e-01,1.325526314279711e-06,2.761333211430650e-07,6.259312546446494e-11
1.637123793688509e-01,1.375241361573667e-06,2.864850309207033e-07,6.493456476789712e-11
1.667621756870478e-01,1.426818463233726e-06,2.972241785766975e-07,6.736334929684523e-11
1.698687866311046e-01,1.480327215925439e-06,3.083652290532066e-07,6.988272355154888e-11
1.730332706001324e-01,1.535839809248453e-06,3.199231852876617e-07,7.249605175760341e-11
1.762567057101486e-01,1.593431121863188e-06,3.319136081048058e-07,7.520682223818793e-11
1.795401901613838e-01,1.653178821153764e-06,3.443526368374582e-07,7.801865194330663e-11
1.828848426124295e-01,1.715163466555658e-06,3.572570107023067e-07,8.093529114152702e-11
1.862918025613577e-01,1.779468616681195e-06,3.706440909579567e-07,8.396062827987903e-11
1.897622307339385e-01,1.846180940380685e-06,3.845318838734275e-07,8.709869501776995e-11
1.932973094790912e-01,1.915390331881909e-06,3.989390645362721e-07,9.035367144095835e-11
1.968982431717015e-01,1.987190030155759e-06,4.138850015305241e-07,9.372989146183464e-11
2.005662586229432e-01,2.061676742661035e-06,4.293897825157305e-07,9.723184841245737e-11
2.043026054982435e-01,2.138950773626837e-06,4.454742407394187e-07,1.008642008370053e-10
2.081085567430345e-01,2.219116157036610e-06,4.621599825164870e-07,1.046317784905246e-10
2.119854090164365e-01,2.302280794483665e-06,4.794694157101577e-07,1.085395885510718e-10
2.159344831330198e-01,2.388556598074007e-06,4.974257792503553e-07,1.125928220525830e-10
2.199571245127965e-01,2.478059638558478e-06,5.160531737266006e-07,1.167968605460367e-10
2.240547036395949e-01,2.570910298882654e-06,5.353765930938120e-07,1.211572829967202e-10
2.282286165279732e-01,2.667233433349509e-06,5.554219575307232e-07,1.256798729256593e-10
2.324802851988314e-01,2.767158532596743e-06,5.762161474920061e-07,1.303706258035256e-10
2.368111581638826e-01,2.870819894597699e-06,5.977870389965957e-07,1.352357567056031e-10
2.412227109191507e-01,2.978356801902132e-06,6.201635401961864e-07,1.402817082366614e-10
2.457164464476607e-01,3.089913705340615e-06,6.433756292693683e-07,1.455151587348650e-10
2.502938957314934e-01,3.205640414424179e-06,6.674543936884371e-07,1.509430307641293e-10
2.549566182733802e-01,3.325692294678841e-06,6.924320709075194e-07,1.565724999046307e-10
2.597062026280135e-01,3.450230472162973e-06,7.183420905223056e-07,1.624110038514725e-10
2.645442669432556e-01,3.579422045424096e-06,7.452191179534112e-07,1.684662518318221e-10
2.694724595114296e-01,3.713440305160543e-06,7.730990997071375e-07,1.747462343511456e-10
2.744924593308800e-01,3.852464961862575e-06,8.020193102692318e-07,1.812592332794894e-10
2.796059766779952e-01,3.996682381717057e-06,8.320184006891293e-07,1.880138322890911e-10
2.848147536898859e-01,4.146285831069520e-06,8.631364489140911e-07,1.950189276549398e-10
2.901205649579179e-01,4.301475729747549e-06,8.954150119346505e-07,2.022837394302492e-10
2.955252181323021e-01,4.462459913559843e-06,9.288971798048485e-07,2.098178230091656e-10
3.010305545379480e-01,4.629453906296042e-06,9.636276316028437e-07,2.176310810893922e-10
3.066384498017883e-01,4.802681201563508e-06,9.996526933996928e-07,2.257337760477813e-10
3.123508144917919e-01,4.982373554808650e-06,1.037020398306334e-06,2.341365427423244e-10
3.181695947678797e-01,5.168771285882278e-06,1.075780548671130e-06,2.428504017543540e-10
3.240967730449667e-01,5.362123592520519e-06,1.115984780502726e-06,2.518867730851669e-10
3.301343686683561e-01,5.562688875125509e-06,1.157686630195444e-06,2.612574903216778e-10
3.362844386017150e-01,5.770735073242909e-06,1.200941603636938e-06,2.709748152861172e-10
3.425490781278666e-01,5.986540014146754e-06,1.245807247780501e-06,2.810514531852115e-10
3.489304215626373e-01,6.210391773955800e-06,1.292343224767043e-06,2.915005682746947e-10
3.554306429820022e-01,6.442589051719776e-06,1.340611388684559e-06,3.023358000554405e-10
3.620519569627769e-01,6.683441556928604e-06,1.390675865055740e-06,3.135712800179355e-10
3.687966193371066e-01,6.933270410912544e-06,1.442603133147285e-06,3.252216489522534e-10
3.756669279610113e-01,7.192408562616958e-06,1.496462111197507e-06,3.373020748411461e-10
3.826652234972487e-01,7.461201219251212e-06,1.552324244661900e-06,3.498282713543174e-10
3.897938902127601e-01,7.740006292327670e-06,1.610263597579497e-06,3.628165169624039e-10
3.970553567909724e-01,8.029194859623851e-06,1.670356947166140e-06,3.762836746896550e-10
4.044520971592324e-01,8.329151643617993e-06,1.732683881744088e-06,3.902472125247679e-10
4.119866313316551e-01,8.640275506966418e-06,1.797326902120886e-06,4.047252245098125e-10
4.196615262676742e-01,8.962979965609536e-06,1.864371526533891e-06,4.197364525276497e-10
4.274793967465854e-01,9.297693720112111e-06,1.933906399280506e-06,4.353003088087261e-10
4.354429062583824e-01,9.644861205863189e-06,2.006023403157877e-06,4.514368991786094e-10
4.435547679111883e-01,1.000494316278107e-05,2.080817775839619e-06,4.681670470681028e-10
4.518177453555904e-01,1.037841722518925e-05,2.158388230321041e-06,4.855123183082649e-10
4.602346537261964e-01,1.076577853255058e-05,2.238837079568335e-06,5.034950467331246e-10
4.688083606007289e-01,1.116754036176864e-05,2.322270365511293e-06,5.221383606133713e-10
4.775417869769878e-01,1.158423478178772e-05,2.408797992523312e-06,5.414662099447612e-10
4.864379082680128e-01,1.201641333124555e-05,2.498533865536753e-06,5.615033946154477e-10
4.954997553157838e-01,1.246464771995698e-05,2.591596032946050e-06,5.822755934769055e-10
5.047304154238066e-01,1.292953055503039e-05,2.688106834455550e-06,6.038093943435692e-10
5.141330334089338e-01,1.341167609244391e-05,2.788193054033546e-06,6.261323249467383e-10
5.237108126727804e-01,1.391172101493367e-05,2.891986078138735e-06,6.492728848687411e-10
5.334670162930990e-01,1.443032523707256e-05,2.999622059390048e-06,6.732605784837573e-10
5.434049681354858e-01,1.496817273844446e-05,3.111242085855710e-06,6.981259489320888e-10
5.535280539857964e-01,1.552597242584651e-05,3.226992356142343e-06,7.239006131550653e-10
5.638397227036587e-01,1.610445902547984e-05,3.347024360470008e-06,7.506172980181072e-10
5.743434873974722e-01,1.670439400611780e-05,3.471495067924215e-06,7.783098775498128e-10
5.850429266212995e-01,1.732656653427019e-05,3.600567120081156e-06,8.070134113252399e-10
5.959416855940511e-01,1.797179446239171e-05,3.734409031207835e-06,8.367641840218168e-10
6.070434774413854e-01,1.864092535121376e-05,3.873195395244056e-06,8.675997461765736e-10
6.183520844607422e-01,1.933483752730961e-05,4.017107099778839e-06,8.995589561735657e-10
6.298713594099435e-01,2.005444117703533e-05,4.166331547239343e-06,9.326820234905326e-10
6.416052268197995e-01,2.080067947802086e-05,4.321062883516024e-06,9.670105532339510e-10
6.535576843311660e-01,2.157452976941917e-05,4.481502234253504e-06,1.002587591991678e-09
6.657328040569119e-01,2.237700476215527e-05,4.647857949042335e-06,1.039457675032413e-09
6.781347339692566e-01,2.320915379045075e-05,4.820345853752732e-06,1.077666874881129e-09
6.907676993129537e-01,2.407206410593530e-05,4.999189511257183e-06,1.117262851299504e-09
7.036360040448000e-01,2.496686221569146e-05,5.184620490794746e-06,1.158294902700166e-09
7.167440322999614e-01,2.589471526561537e-05,5.376878646235839e-06,1.200814019023317e-09
7.300962498856154e-01,2.685683247051314e-05,5.576212403512214e-06,1.244872936103896e-09
7.436972058024175e-01,2.785446659238901e-05,5.782879057482834e-06,1.290526191556979e-09
7.575515337943122e-01,2.888891546841979e-05,5.997145078512362e-06,1.337830182208571e-09
7.716639539272144e-01,2.996152359014759e-05,6.219286429044784e-06,1.386843223098207e-09
7.860392741971015e-01,3.107368373546186e-05,6.449588890460862e-06,1.437625608079032e-09
8.006823921680606e-01,3.222683865497990e-05,6.688348400513716e-06,1.490239672040034e-09
8.155982966408525e-01,3.342248281447509e-05,6.935871401642839e-06,1.544749854774057e-09
8.307920693525587e-01,3.466216419504038e-05,7.192475200472553e-06,1.601222766513954e-09
8.462688867078912e-01,3.594748615271528e-05,7.458488338806467e-06,1.659727255157853e-09
8.620340215427552e-01,3.728010933934337e-05,7.734250976435114e-06,1.720334475202900e-09
8.780928449206640e-01,3.866175368646781e-05,8.020115286079273e-06,1.783117958405077e-09
8.944508279626209e-01,4.009420045411171e-05,8.316445860796618e-06,1.848153686180683e-09
9.111135437110888e-01,4.157929434632997e-05,8.623620134184494e-06,1.915520163762834e-09
9.280866690286854e-01,4.311894569545891e-05,8.942028813716216e-06,1.985298496123935e-09
9.453759865322453e-01,4.471513271702812e-05,9.272076327552814e-06,2.057572465672234e-09
9.629873865629164e-01,4.636990383733958e-05,9.614181285176566e-06,2.132428611727707e-09
9.809268691929541e-01,4.808538009575501e-05,9.968776952196234e-06,2.209956311779074e-09
9.992005462699015e-01,4.986375762377175e-05,1.033631173967764e-05,2.290247864520215e-09
1.017814643498850e+00,5.170731020300278e-05,1.071724970835623e-05,2.373398574660227e-09
1.036775502563490e+00,5.361839190421313e-05,1.111207108809079e-05,2.459506839496998e-09
1.056089583286676e+00,5.559943980959871e-05,1.152127281291992e-05,2.548674237239474e-09
1.075763465831240e+00,5.765297682052725e-05,1.194536907208384e-05,2.641005617058553e-09
1.095803852941801e+00,5.978161455299212e-05,1.238489187737565e-05,2.736609190840942e-09
1.116217572228345e+00,6.198805632306033e-05,1.284039164718579e-05,2.835596626614193e-09
1.137011578492336e+00,6.427510022462326e-05,1.331243780760339e-05,2.938083143604407e-09
1.158192956096167e+00,6.664564230178432e-05,1.380161941093646e-05,3.044187608881007e-09
1.179768921376748e+00,6.910267981824123e-05,1.430854577201068e-05,3.154032635535033e-09
1.201746825104061e+00,7.164931462604053e-05,1.483384712260354e-05,3.267744682329065e-09
1.224134154985508e+00,7.428875663609863e-05,1.537817528436568e-05,3.385454154747672e-09
1.246938538216922e+00,7.702432739289879e-05,1.594220436057636e-05,3.507295507367454e-09
1.270167744081090e+00,7.985946375578103e-05,1.652663144707258e-05,3.633407347455064e-09
1.293829686594694e+00,8.279772168924991e-05,1.713217736268380e-05,3.763932539690153e-09
1.317932427204553e+00,8.584278016472396e-05,1.775958739949378e-05,3.899018311897743e-09
1.342484177534105e+00,8.899844517614813e-05,1.840963209324059e-05,4.038816361661282e-09
1.367493302181035e+00,9.226865387187916e-05,1.908310801415180e-05,4.183482963673241e-09
1.392968321567041e+00,9.565747880523965e-05,1.978083857849782e-05,4.333179077664730e-09
1.418917914840672e+00,9.916913230611256e-05,2.050367488112848e-05,4.488070456739028e-09
1.445350922834251e+00,1.028079709759192e-04,2.125249654923937e-05,4.648327755916116e-09
1.472276351075880e+00,1.065785003082848e-04,2.202821261759215e-05,4.814126640676277e-09
1.499703372857557e+00,1.104853794376524e-04,2.283176242538963e-05,4.985647895270196e-09
1.527641332360445e+00,1.145334260180444e-04,2.366411653497842e-05,5.163077530541135e-09
1.556099747838369e+00,1.187276212341133e-04,2.452627767252291e-05,5.346606890981177e-09
1.585088314860611e+00,1.230731149465398e-04,2.541928169076072e-05,5.536432760718224e-09
1.614616909615118e+00,1.275752309737515e-04,2.634419855391284e-05,5.732757468103528e-09
1.644695592273245e+00,1.322394725118338e-04,2.730213334478222e-05,5.935788988540437e-09
1.675334610417184e+00,1.370715276943884e-04,2.829422729402938e-05,6.145741045164245e-09
