# energy,pi_pi
2.273832107961959e-02,1.077613222106511e-07
2.316191304119240e-02,1.118115967193665e-07
2.359339609328507e-02,1.160140627658087e-07
2.403291723894593e-02,1.203744367339897e-07
2.448062621974163e-02,1.248986495865378e-07
2.493667556677304e-02,1.295928549119478e-07
2.540122065264139e-02,1.344634372731958e-07
2.587441974438261e-02,1.395170208689809e-07
2.635643405738766e-02,1.447604785192762e-07
2.684742781032749e-02,1.502009409873017e-07
2.734756828110103e-02,1.558458066504902e-07
2.785702586382559e-02,1.617027515334780e-07
2.837597412688879e-02,1.677797397166416e-07
2.890458987208211e-02,1.740850341342047e-07
2.944305319483582e-02,1.806272077764573e-07
2.999154754557623e-02,1.874151553111752e-07
3.055025979222585e-02,1.944581051398857e-07
3.111938028386790e-02,2.017656319052079e-07
3.169910291559679e-02,2.093476694660996e-07
3.228962519457679e-02,2.172145243584666e-07
3.289114830733118e-02,2.253768897592428e-07
3.350387718828503e-02,2.338458599727159e-07
3.412802058958479e-02,2.426329454585777e-07
3.476379115221866e-02,2.517500884218956e-07
3.541140547846170e-02,2.612096789859533e-07
3.607108420567064e-02,2.710245719696887e-07
3.674305208145338e-02,2.812081042922589e-07
3.742753804023882e-02,2.917741130281000e-07
3.812477528127310e-02,3.027369541367167e-07
3.883500134806885e-02,3.141115218923327e-07
3.955845820933445e-02,3.259132690394661e-07
4.029539234141102e-02,3.381582277014583e-07
4.104605481224502e-02,3.508630310699908e-07
4.181070136692525e-02,3.640449359046494e-07
4.258959251481324e-02,3.777218458726902e-07
4.338299361829691e-02,3.919123357602602e-07
4.419117498319750e-02,4.066356765874919e-07
4.501441195086077e-02,4.219118616610859e-07
4.585298499196371e-02,4.377616335992370e-07
4.670717980206880e-02,4.542065123650550e-07
4.757728739895840e-02,4.712688243459574e-07
4.846360422178229e-02,4.889717325178979e-07
4.936643223205225e-02,5.073392677347375e-07
5.028607901651818e-02,5.263963611845414e-07
5.122285789196049e-02,5.461688780561286e-07
5.217708801193483e-02,5.666836524608096e-07
5.314909447550537e-02,5.879685236558889e-07
5.413920843800354e-02,6.100523736182343e-07
5.514776722385021e-02,6.329651660179936e-07
5.617511444147961e-02,6.567379866443808e-07
5.722160010040415e-02,6.814030853373668e-07
5.828758073045998e-02,7.069939194810885e-07
5.937341950327416e-02,7.335451991168466e-07
6.047948635599440e-02,7.610929337356805e-07
6.160615811732393e-02,7.896744808127276e-07
6.275381863590423e-02,8.193285961478445e-07
6.392285891108938e-02,8.500954860793368e-07
6.511367722615660e-02,8.820168616401137e-07
6.632667928399841e-02,9.151359947280923e-07
6.756227834534254e-02,9.494977763653502e-07
6.882089536954679e-02,9.851487771232121e-07
7.010295915801670e-02,1.022137309793321e-06
7.140890650029512e-02,1.060513494387645e-06
7.273918232287292e-02,1.100329325553420e-06
7.409423984077228e-02,1.141638742492172e-06
7.547454071195356e-02,1.184497701475200e-06
7.688055519459881e-02,1.228964251051325e-06
7.831276230732516e-02,1.275098610046131e-06
7.977164999238286e-02,1.322963248455607e-06
8.125771528189359e-02,1.372622971340830e-06
8.277146446718557e-02,1.424145005834196e-06
8.431341327128328e-02,1.477599091371754e-06
8.588408702461033e-02,1.533057573270343e-06
8.748402084396568e-02,1.590595499772583e-06
8.911375981483396e-02,1.650290722687185e-06
9.077385917709194e-02,1.712224001756732e-06
9.246488451417462e-02,1.776479112889831e-06
9.418741194576534e-02,1.843142960399545e-06
9.594202832407536e-02,1.912305693395086e-06
9.772933143378010e-02,1.984060826479161e-06
9.954993019567983e-02,2.058505364908786e-06
1.014044448741545e-01,2.135739934383161e-06
1.032935072884830e-01,2.215868915628032e-06
1.052177610280998e-01,2.299000583952179e-06
1.071778616718601e-01,2.385247253957873e-06
1.091744770113916e-01,2.474725429593829e-06
1.112082872786057e-01,2.567555959745847e-06
1.132799853774473e-01,2.663864199567445e-06
1.153902771199621e-01,2.763780177760003e-06
1.175398814667616e-01,2.867438770019467e-06
1.197295307719677e-01,2.974979878874434e-06
1.219599710327197e-01,3.086548620148534e-06
1.242319621433306e-01,3.202295516288314e-06
1.265462781541771e-01,3.322376696806433e-06
1.289037075354127e-01,3.446954106098998e-06
1.313050534455940e-01,3.576195718904962e-06
1.337511340053101e-01,3.710275763685154e-06
1.362427825759109e-01,3.849374954208381e-06
1.387808480434267e-01,3.993680729642165e-06
1.413661951077771e-01,4.143387503456370e-06
1.439997045773685e-01,4.298696921458838e-06
1.466822736691782e-01,4.459818129293422e-06
1.494148163144299e-01,4.626968049742563e-06
1.521982634699632e-01,4.800371670188611e-06
1.550335634354035e-01,4.980262340600544e-06
1.579216821762408e-01,5.166882082425730e-06
1.608636036529266e-01,5.360481908779684e-06
1.638603301561023e-01,5.561322156340550e-06
1.669128826480716e-01,5.769672829369386e-06
1.700223011106352e-01,5.985813956291984e-06
1.731896448994045e-01,6.210035959293251e-06
1.764159931047164e-01,6.442640037390908e-06
1.797024449192710e-01,6.683938563471473e-06
1.830501200126186e-01,6.934255495788462e-06
1.864601589126226e-01,7.193926804439847e-06
1.899337233940287e-01,7.463300913359986e-06
1.934719968742733e-01,7.742739158379636e-06
1.970761848166643e-01,8.032616261926750e-06
2.007475151410742e-01,8.333320824960626e-06
2.044872386422825e-01,8.645255836752255e-06
2.082966294161127e-01,8.968839203144757e-06
2.121769852935068e-01,9.304504293949687e-06
2.161296282826867e-01,9.652700510157121e-06
2.201559050195528e-01,1.001389387166084e-05
2.242571872264724e-01,1.038856762622363e-05
2.284348721796154e-01,1.077722288043239e-05
2.326903831849959e-01,1.118037925341826e-05
2.370251700633818e-01,1.159857555414287e-05
2.414407096442379e-01,1.203237048307917e-05
2.459385062688709e-01,1.248234335914299e-05
2.505200923029467e-01,1.294909487276012e-05
2.551870286585565e-01,1.343324786598346e-05
2.599409053260076e-01,1.393544814060518e-05
2.647833419155210e-01,1.445636529524023e-05
2.697159882090210e-01,1.499669359239009e-05
2.747405247222031e-01,1.555715285652860e-05
2.798586632770734e-01,1.613848940428662e-05
2.850721475851533e-01,1.674147700784702e-05
2.903827538415492e-01,1.736691789269824e-05
2.957922913300889e-01,1.801564377093216e-05
3.013026030397309e-01,1.868851691131008e-05
3.069155662924569e-01,1.938643124736080e-05
3.126330933828618e-01,2.011031352481540e-05
3.184571322296577e-01,2.086112448972462e-05
3.243896670393152e-01,2.163986011864885e-05
3.304327189820679e-01,2.244755289235420e-05
3.365883468805105e-01,2.328527311449372e-05
3.428586479110231e-01,2.415413027679995e-05
3.492457583182642e-01,2.505527447236224e-05
3.557518541429737e-01,2.598989785861224e-05
3.623791519633326e-01,2.695923617169072e-05
3.691299096501357e-01,2.796457029392133e-05
3.760064271360305e-01,2.900722787616943e-05
3.830110471990874e-01,3.008858501691902e-05
3.901461562609668e-01,3.121006799995615e-05
3.974141851999546e-01,3.237315509260480e-05
4.048176101791451e-01,3.357937840651901e-05
4.123589534900501e-01,3.483032582309562e-05
4.200407844119258e-01,3.612764298563257e-05
4.278657200871064e-01,3.747303536042056e-05
4.358364264126454e-01,3.886827036901991e-05
4.439556189485660e-01,4.031517959403917e-05
4.522260638430330e-01,4.181566106079958e-05
4.606505787747583e-01,4.337168159733662e-05
4.692320339129630e-01,4.498527927525950e-05
4.779733528952225e-01,4.665856593406021e-05
4.868775138235282e-01,4.839372979153551e-05
4.959475502789041e-01,5.019303814305788e-05
5.051865523549266e-01,5.205884015250704e-05
5.145976677104938e-01,5.399356973774728e-05
5.241841026422116e-01,5.599974855361467e-05
5.339491231767536e-01,5.807998907545359e-05
5.438960561835728e-01,6.023699778632317e-05
5.540282905083406e-01,6.247357847107102e-05
5.643492781275014e-01,6.479263562055527e-05
5.748625353243351e-01,6.719717794937414e-05
5.855716438869285e-01,6.969032203054626e-05
5.964802523284637e-01,7.227529605066659e-05
6.075920771302394e-01,7.495544368914554e-05
6.189109040078481e-01,7.773422812522215e-05
6.304405892009410e-01,8.061523617652570e-05
6.421850607870204e-01,8.360218257304296e-05
6.541483200197059e-01,8.669891437043165e-05
6.663344426919318e-01,8.990941550670310e-05
6.787475805245391e-01,9.323781150637924e-05
6.913919625807360e-01,9.668837433630972e-05
7.042718967069078e-01,1.002655274174163e-04
7.173917710002684e-01,1.039738507967080e-04
7.307560553038516e-01,1.078180864839899e-04
7.443693027293533e-01,1.118031439577614e-04
7.582361512083433e-01,1.159341058448738e-04
7.723613250723730e-01,1.202162337785849e-04
7.867496366625197e-01,1.246549744397175e-04
8.014059879689173e-01,1.292559657856892e-04
8.163353723008244e-01,1.340250434722389e-04
8.315428759878098e-01,1.389682474727351e-04
8.470336801126263e-01,1.440918288999922e-04
8.628130622763661e-01,1.494022570355689e-04
8.788863983965015e-01,1.549062265715608e-04
8.952591645384185e-01,1.606106650699207e-04
9.119369387810718e-01,1.665227406443748e-04
9.289254031173947e-01,1.726498698699987e-04
9.462303453901110e-01,1.789997259255387e-04
9.638576612636107e-01,1.855802469735394e-04
9.818133562325578e-01,1.923996447833316e-04
1.000103547667918e+00,1.994664136018970e-04
1.018734466901101e+00,2.067893392775806e-04
1.037712461346929e+00,2.143775086415640e-04
1.057043996666151e+00,2.222403191519342e-04
1.076735658968251e+00,2.303874888050844e-04
1.096794157055277e+00,2.388290663190771e-04
1.117226324707491e+00,2.475754415934561e-04
1.138039123011574e+00,2.566373564498400e-04
1.159239642732230e+00,2.660259156574530e-04
1.180835106727943e+00,2.757525982475249e-04
1.202832872411763e+00,2.858292691202751e-04
1.225240434257911e+00,2.962681909479080e-04
1.248065426355099e+00,3.070820363767582e-04
1.271315625007399e+00,3.182839005313837e-04
1.294998951383580e+00,3.298873138230229e-04
1.319123474215786e+00,3.419062550644222e-04
1.343697412548490e+00,3.543551648925752e-04
1.368729138538668e+00,3.672489595004010e-04
1.394227180308124e+00,3.806030446778353e-04
1.420200224848962e+00,3.944333301621800e-04
1.446657120983177e+00,4.087562442968901e-04
1.473606882377380e+00,4.235887489972347e-04
1.501058690613693e+00,4.389483550204530e-04
1.529021898317839e+00,4.548531375371543e-04
1.557506032345515e+00,4.713217519997499e-04
1.586520797028122e+00,4.883734503026536e-04
1.616076077478953e+00,5.060280972278644e-04
1.646181942960981e+00,5.243061871683082e-04
1.676848650317382e+00,5.432288611199942e-04
1.708086647465962e+00,5.628179239325835e-04
1.739906576958686e+00,5.830958618064307e-04
1.772319279607517e+00,6.040858600224586e-04
1.805335798177798e+00,6.258118208894200e-04
1.838967381150437e+00,6.482983818911347e-04
1.873225486554187e+00,6.715709340141899e-04
1.908121785869305e+00,6.956556402342953e-04
1.943668168003940e+00,7.205794541370732e-04
1.979876743344595e+00,7.463701386463935e-04
2.016759847882045e+00,7.730562848305686e-04
2.054330047414116e+00,8.006673307536565e-04
2.092600141826762e+00,8.292335803358912e-04
2.131583169454885e+00,8.587862221837180e-04
2.171292411524400e+00,8.893573483462048e-04
2.211741396677052e+00,9.209799729505312e-04
2.252943905579521e+00,9.536880506649837e-04
2.294913975618390e+00,9.875164949332352e-04
2.337665905682582e+00,1.022501195918771e-03
2.381214261034881e+00,1.058679038093004e-03
2.425573878274211e+00,1.096087917394984e-03
2.470759870390350e+00,1.134766757884541e-03
2.516787631912818e+00,1.174755527804234e-03
2.563672844155672e+00,1.216095254958553e-03
2.611431480560018e+00,1.258828041311444e-03
2.660079812136041e+00,1.302997076695333e-03
2.709634413006413e+00,1.348646651516387e-03
2.760112166052979e+00,1.395822168331776e-03
2.811530268668624e+00,1.444570152165087e-03
2.863906238616295e+00,1.494938259415809e-03
2.917257919997178e+00,1.546975285207889e-03
2.971603489330043e+00,1.600731169010713e-03
3.026961461743852e+00,1.656256998353457e-03
3.083350697285723e+00,1.713605010440512e-03
3.140790407346409e+00,1.772828591461615e-03
3.199300161205473e+00,1.833982273375269e-03
3.258899892698397e+00,1.897121727928070e-03
3.319609907007889e+00,1.962303757655493e-03
3.381450887581707e+00,2.029586283591597e-03
3.444443903179357e+00,2.099028329395746e-03
3.508610415050059e+00,2.170690001583956e-03
3.573972284244435e+00,2.244632465530578e-03
3.640551779062409e+00,2.320917916882742e-03
3.708371582639842e+00,2.399609548005322e-03
3.777454800676516e+00,2.480771509047768e-03
3.847824969308067e+00,2.564468863196219e-03
3.919506063124572e+00,2.650767535644520e-03
3.992522503338514e+00,2.739734255786162e-03
4.066899166104903e+00,2.831436492095481e-03
4.142661390996394e+00,2.925942379130739e-03
4.219834989636309e+00,3.023320636053753e-03
4.298446254492435e+00,3.123640476020223e-03
4.378521967834689e+00,3.226971505752297e-03
4.460089410859632e+00,3.333383614559066e-03
4.543176372984970e+00,3.442946852022475e-03
4.627811161317202e+00,3.555731293514704e-03
4.714022610295635e+00,3.671806892658443e-03
4.801840091516070e+00,3.791243319783641e-03
4.891293523737472e+00,3.914109785372657e-03
4.982413383075080e+00,4.040474847420560e-03
5.075230713383387e+00,4.170406201567878e-03
5.169777136832545e+00,4.303970452789594e-03
5.266084864681807e+00,4.441232867346013e-03
5.364186708253661e+00,4.582257103618355e-03
5.464116090112401e+00,4.727104920363845e-03
5.565907055450945e+00,4.875835860831883e-03
5.669594283689778e+00,5.028506911083836e-03
5.775213100291971e+00,5.185172130753996e-03
5.882799488798303e+00,5.345882254377817e-03
5.992390103086579e+00,5.510684261295475e-03
6.104022279859341e+00,5.679620912013396e-03
6.217734051364196e+00,5.852730248773565e-03
6.333564158351121e+00,6.030045057939521e-03
6.451552063271146e+00,6.211592291658438e-03
6.571737963720919e+00,6.397392446100406e-03
6.694162806137718e+00,6.587458893407872e-03
6.818868299749608e+00,6.781797164310302e-03
6.945896930785453e+00,6.980404178170259e-03
7.075291976949660e+00,7.183267417027012e-03
7.207097522166571e+00,7.390364039991766e-03
7.341358471599523e+00,7.601659934123690e-03
7.478120566949706e+00,7.817108697677879e-03
7.617430402040009e+00,8.036650551363692e-03
7.759335438689199e+00,8.260211172984630e-03
7.903884022881797e+00,8.487700450547154e-03
8.051125401239204e+00,8.719011148625718e-03
8.201109737797646e+00,8.954017482452871e-03
8.353888131098691e+00,9.192573593866106e-03
8.509512631598138e+00,9.434511922886040e-03
8.668036259399226e+00,9.679641468321898e-03
8.829513022316172e+00,9.927745930399530e-03
8.993997934274240e+00,1.017858172798250e-02
9.161547034052576e+00,1.043187588250705e-02
9.332217404376188e+00,1.068732376027520e-02
9.506067191363615e+00,1.094458666424593e-02
9.683155624336871e+00,1.120328926592975e-02
9.863543036000435e+00,1.146301686742623e-02
1.004729088299614e+01,1.172331248304457e-02
1.023446176684102e+01,1.198367372931295e-02
1.042511945525512e+01,1.224354951150993e-02
1.061932890388676e+01,1.250233649414006e-02
1.081715627844240e+01,1.275937534202230e-02
1.101866897722876e+01,1.301394671786189e-02
1.122393565411500e+01,1.326526702133292e-02
1.143302624192251e+01,1.351248385380459e-02
1.164601197625054e+01,1.375467119190139e-02
1.186296541974562e+01,1.399082425209577e-02
1.208396048682313e+01,1.421985402753463e-02
1.230907246884935e+01,1.444058193016720e-02
1.253837805979270e+01,1.465204703193056e-02
1.277195538235278e+01,1.485401677413116e-02
1.300988401457621e+01,1.504638498425292e-02
1.325224501696827e+01,1.522905542188005e-02
1.349912096010958e+01,1.540194328164824e-02
1.375059595278732e+01,1.556497644454251e-02
1.400675567065043e+01,1.571809716043483e-02
1.426768738539870e+01,1.586126303201122e-02
1.453347999451555e+01,1.599444901236948e-02
1.480422405155474e+01,1.611764894749148e-02
1.508001179699132e+01,1.623087745892693e-02
1.536093718964724e+01,1.633417225938927e-02
1.564709593870244e+01,1.642759537844115e-02
1.593858553630222e+01,1.651123643267093e-02
1.623550529077211e+01,1.658521483172495e-02
1.653795636045147e+01,1.664968062112282e-02
1.684604178815739e+01,1.670482125243634e-02
1.715986653629058e+01,1.675086097561438e-02
1.747953752259527e+01,1.678806468058356e-02
1.780516365658535e+01,1.681674264829282e-02
1.813685587664894e+01,1.683725299876138e-02
1.847472718784434e+01,1.685000612421718e-02
1.881889270039996e+01,1.685546856757764e-02
1.916946966893153e+01,1.685416741736584e-02
1.952657753238989e+01,1.684669685440058e-02
1.989033795475292e+01,1.683371742218314e-02
2.026087486647555e+01,1.681597089522579e-02
2.063831450671195e+01,1.679427726607615e-02
2.102278546632428e+01,1.676954543077947e-02
2.141441873169260e+01,1.674277827685189e-02
2.181334772934095e+01,1.671653326585731e-02
2.221970837139482e+01,1.668766926707002e-02
2.263363910188534e+01,1.665780795157054e-02
2.305528094391614e+01,1.662691657482417e-02
2.348477754770888e+01,1.659496179780584e-02
2.392227523954381e+01,1.656190921746204e-02
2.436792307161200e+01,1.652772332185435e-02
2.482187287279636e+01,1.649236798991870e-02
2.528427930039856e+01,1.645580531836568e-02
2.575529989282964e+01,1.641799798148918e-02
2.623509512328216e+01,1.637890531518926e-02
2.672382845440223e+01,1.633848757813516e-02
2.722166639397997e+01,1.629670279630922e-02
2.772877855167756e+01,1.625350810033849e-02
2.824533769681386e+01,1.620886065368239e-02
2.877151981722571e+01,1.616271453676303e-02
2.930750417922565e+01,1.611502404763944e-02
2.985347338867658e+01,1.606574192208983e-02
3.040961345320427e+01,1.601481981947466e-02
3.097611384556874e+01,1.596220823474417e-02
3.155316756821616e+01,1.590785643803464e-02
3.214097121903345e+01,1.585171268056185e-02
3.273972505832761e+01,1.579372363049687e-02
3.334963307705295e+01,1.573383527045654e-02
3.397090306630928e+01,1.567199237374814e-02
3.460374668813478e+01,1.560813769873367e-02
3.524837954761768e+01,1.554221421156061e-02
3.590502126635130e+01,1.547416266151953e-02
3.657389555725745e+01,1.540392311928448e-02
3.725523030080382e+01,1.533143369965536e-02
3.794925762264108e+01,1.525663416296559e-02
3.865621397268640e+01,1.517946030799336e-02
3.937634020568013e+01,1.509984520408492e-02
4.010988166324324e+01,1.501772686467459e-02
4.085708825746337e+01,1.493303772229804e-02
4.161821455603799e+01,1.484571032952373e-02
4.239351986900374e+01,1.475567712923471e-02
4.318326833708138e+01,1.466286873783935e-02
4.398772902166659e+01,1.456721586052768e-02
4.480717599649718e+01,1.446864814785894e-02
4.564188844102792e+01,1.436709530629324e-02
4.649215073554495e+01,1.426248561379908e-02
4.735825255805195e+01,1.415474768676724e-02
4.824048898296135e+01,1.404380959623818e-02
4.913916058162390e+01,1.392959951462527e-02
5.005457352473110e+01,1.381204588552948e-02
5.098703968662532e+01,1.369107715305214e-02
5.193687675155295e+01,1.356662177087803e-02
5.290440832189717e+01,1.343860939350232e-02
5.388996402842676e+01,1.330697008252504e-02
5.489387964259888e+01,1.317163480009010e-02
5.591649719095391e+01,1.303253654750014e-02
5.695816507164129e+01,1.288960872615426e-02
5.801923817311620e+01,1.274278782552009e-02
5.910007799504739e+01,1.259201104059947e-02
6.020105277147739e+01,1.243722015581860e-02
6.132253759627717e+01,1.227835522705859e-02
6.246491455093770e+01,1.211536580090218e-02
6.362857283474236e+01,1.194820109476440e-02
6.481390889736416e+01,1.177681528130101e-02
6.602132657393322e+01,1.160116684441784e-02
6.725123722262036e+01,1.142122015422162e-02
6.850405986478373e+01,1.123694489531563e-02
6.978022132772627e+01,1.104831695281542e-02
7.108015639011255e+01,1.085531947431176e-02
7.240430793009482e+01,1.065794315108030e-02
7.375312707619790e+01,1.045618725766000e-02
7.512707336101559e+01,1.025006029799708e-02
7.652661487776989e+01,1.003958116061755e-02
7.795222843978682e+01,9.824779495229100e-03
7.940439974294326e+01,9.605697402510587e-03
8.088362353113982e+01,9.382390019250727e-03
8.239040376485640e+01,9.154927220503730e-03
8.392525379284778e+01,8.923392682972197e-03
8.548869652703766e+01,8.687892433740312e-03
8.708126462067091e+01,8.448543321057444e-03
8.870350064978443e+01,8.205487182257320e-03
9.035595729805891e+01,7.958885850831042e-03
9.203919754511385e+01,7.708924407535582e-03
9.375379485831064e+01,7.455813561210960e-03
9.550033338812855e+01,7.199790486376510e-03
9.727940816718041e+01,6.941121763012969e-03
