# energy,pi_pi
2.273832107961959e-02,5.389996190716450e-08
2.316191304119240e-02,5.592617365907613e-08
2.359339609328507e-02,5.802854143889198e-08
2.403291723894593e-02,6.020992683495588e-08
2.448062621974163e-02,6.247329891699209e-08
2.493667556677304e-02,6.482173827061706e-08
2.540122065264139e-02,6.725844118315174e-08
2.587441974438261e-02,6.978672398640024e-08
2.635643405738766e-02,7.241002756227346e-08
2.684742781032749e-02,7.513192201735315e-08
2.734756828110103e-02,7.795611153272339e-08
2.785702586382559e-02,8.088643939562894e-08
2.837597412688879e-02,8.392689321976818e-08
2.890458987208211e-02,8.708161036128058e-08
2.944305319483582e-02,9.035488353775204e-08
2.999154754557623e-02,9.375116665783691e-08
3.055025979222585e-02,9.727508086937733e-08
3.111938028386790e-02,1.009314208341947e-07
3.169910291559679e-02,1.047251612380341e-07
3.228962519457679e-02,1.086614635444585e-07
3.289114830733118e-02,1.127456830018169e-07
3.350387718828503e-02,1.169833759127534e-07
3.412802058958479e-02,1.213803071760735e-07
3.476379115221866e-02,1.259424581111530e-07
3.541140547846170e-02,1.306760345754544e-07
3.607108420567064e-02,1.355874753861069e-07
3.674305208145338e-02,1.406834610569180e-07
3.742753804023882e-02,1.459709228626062e-07
3.812477528127310e-02,1.514570522424826e-07
3.883500134806885e-02,1.571493105562688e-07
3.955845820933445e-02,1.630554392052054e-07
4.029539234141102e-02,1.691834701320997e-07
4.104605481224502e-02,1.755417367144686e-07
4.181070136692525e-02,1.821388850654561e-07
4.258959251481324e-02,1.889838857577571e-07
4.338299361829691e-02,1.960860459863396e-07
4.419117498319750e-02,2.034550221863510e-07
4.501441195086077e-02,2.111008331231982e-07
4.585298499196371e-02,2.190338734724262e-07
4.670717980206880e-02,2.272649279076752e-07
4.757728739895840e-02,2.358051857156738e-07
4.846360422178229e-02,2.446662559579318e-07
4.936643223205225e-02,2.538601831995254e-07
5.028607901651818e-02,2.633994638261292e-07
5.122285789196049e-02,2.732970629712256e-07
5.217708801193483e-02,2.835664320762492e-07
5.314909447550537e-02,2.942215271072590e-07
5.413920843800354e-02,3.052768274526068e-07
5.514776722385021e-02,3.167473555269861e-07
5.617511444147961e-02,3.286486971081780e-07
5.722160010040415e-02,3.409970224337918e-07
5.828758073045998e-02,3.538091080863065e-07
5.937341950327416e-02,3.671023596957748e-07
6.047948635599440e-02,3.808948354906275e-07
6.160615811732393e-02,3.952052707281581e-07
6.275381863590423e-02,4.100531030374237e-07
6.392285891108938e-02,4.254584987085160e-07
6.511367722615660e-02,4.414423799634163e-07
6.632667928399841e-02,4.580264532449414e-07
6.756227834534254e-02,4.752332385616464e-07
6.882089536954679e-02,4.930860999279446e-07
7.010295915801670e-02,5.116092769401618e-07
7.140890650029512e-02,5.308279175307363e-07
7.273918232287292e-02,5.507681119443446e-07
7.409423984077228e-02,5.714569279813466e-07
7.547454071195356e-02,5.929224475556163e-07
7.688055519459881e-02,6.151938046155642e-07
7.831276230732516e-02,6.383012244789518e-07
7.977164999238286e-02,6.622760646339737e-07
8.125771528189359e-02,6.871508570610044e-07
8.277146446718557e-02,7.129593521314225e-07
8.431341327128328e-02,7.397365641419925e-07
8.588408702461033e-02,7.675188185454422e-07
8.748402084396568e-02,7.963438009401018e-07
8.911375981483396e-02,8.262506078837887e-07
9.077385917709194e-02,8.572797995995030e-07
9.246488451417462e-02,8.894734546430035e-07
9.418741194576534e-02,9.228752266048885e-07
9.594202832407536e-02,9.575304029224726e-07
9.772933143378010e-02,9.934859658795333e-07
9.954993019567983e-02,1.030790655874833e-06
1.014044448741545e-01,1.069495037043319e-06
1.032935072884830e-01,1.109651565316947e-06
1.052177610280998e-01,1.151314659015287e-06
1.071778616718601e-01,1.194540772059348e-06
1.091744770113916e-01,1.239388469905493e-06
1.112082872786057e-01,1.285918508299821e-06
1.132799853774473e-01,1.334193914957126e-06
1.153902771199621e-01,1.384280074272276e-06
1.175398814667616e-01,1.436244815175825e-06
1.197295307719677e-01,1.490158502249746e-06
1.219599710327197e-01,1.546094130223407e-06
1.242319621433306e-01,1.604127421974246e-06
1.265462781541771e-01,1.664336930162180e-06
1.289037075354127e-01,1.726804142631473e-06
1.313050534455940e-01,1.791613591718589e-06
1.337511340053101e-01,1.858852967609677e-06
1.362427825759109e-01,1.928613235896489e-06
1.387808480434267e-01,2.000988759484944e-06
1.413661951077771e-01,2.076077425016148e-06
1.439997045773685e-01,2.153980773965484e-06
1.466822736691782e-01,2.234804138591330e-06
1.494148163144299e-01,2.318656782911225e-06
1.521982634699632e-01,2.405652048889713e-06
1.550335634354035e-01,2.495907508028710e-06
1.579216821762408e-01,2.589545118558185e-06
1.608636036529266e-01,2.686691388432030e-06
1.638603301561023e-01,2.787477544341400e-06
1.669128826480716e-01,2.892039706965425e-06
1.700223011106352e-01,3.000519072687117e-06
1.731896448994045e-01,3.113062102010475e-06
1.764159931047164e-01,3.229820714923246e-06
1.797024449192710e-01,3.350952493458580e-06
1.830501200126186e-01,3.476620891717906e-06
1.864601589126226e-01,3.606995453626680e-06
1.899337233940287e-01,3.742252038704427e-06
1.934719968742733e-01,3.882573056140542e-06
1.970761848166643e-01,4.028147707477620e-06
2.007475151410742e-01,4.179172238215037e-06
2.044872386422825e-01,4.335850198656350e-06
2.082966294161127e-01,4.498392714335855e-06
2.121769852935068e-01,4.667018766371386e-06
2.161296282826867e-01,4.841955482102766e-06
2.201559050195528e-01,5.023438436388123e-06
2.242571872264724e-01,5.211711963943343e-06
2.284348721796154e-01,5.407029483123611e-06
2.326903831849959e-01,5.609653831560084e-06
2.370251700633818e-01,5.819857614079159e-06
2.414407096442379e-01,6.037923563347007e-06
2.459385062688709e-01,6.264144913697491e-06
2.505200923029467e-01,6.498825788617612e-06
2.551870286585565e-01,6.742281602381374e-06
2.599409053260076e-01,6.994839476339967e-06
2.647833419155210e-01,7.256838670394017e-06
2.697159882090210e-01,7.528631030191855e-06
2.747405247222031e-01,7.810581450616814e-06
2.798586632770734e-01,8.103068356145998e-06
2.850721475851533e-01,8.406484198683248e-06
2.903827538415492e-01,8.721235973489779e-06
2.957922913300889e-01,9.047745753857673e-06
3.013026030397309e-01,9.386451245193436e-06
3.069155662924569e-01,9.737806359201931e-06
3.126330933828618e-01,1.010228180888473e-05
3.184571322296577e-01,1.048036572509119e-05
3.243896670393152e-01,1.087256429538603e-05
3.304327189820679e-01,1.127940242602319e-05
3.365883468805105e-01,1.170142442784241e-05
3.428586479110231e-01,1.213919472693318e-05
3.492457583182642e-01,1.259329860093863e-05
3.557518541429737e-01,1.306434294190221e-05
3.623791519633326e-01,1.355295704658978e-05
3.691299096501357e-01,1.405979343525152e-05
3.760064271360305e-01,1.458552869981996e-05
3.830110471990874e-01,1.513086438257458e-05
3.901461562609668e-01,1.569652788633656e-05
3.974141851999546e-01,1.628327341729385e-05
4.048176101791451e-01,1.689188296159243e-05
4.123589534900501e-01,1.752316729686730e-05
4.200407844119258e-01,1.817796703992573e-05
4.278657200871064e-01,1.885715373183465e-05
4.358364264126454e-01,1.956163096170536e-05
4.439556189485660e-01,2.029233553051076e-05
4.522260638430330e-01,2.105023865631364e-05
4.606505787747583e-01,2.183634722232946e-05
4.692320339129630e-01,2.265170506929236e-05
4.779733528952225e-01,2.349739433364120e-05
4.868775138235282e-01,2.437453683308993e-05
4.959475502789041e-01,2.528429550119723e-05
5.051865523549266e-01,2.622787587260123e-05
5.145976677104938e-01,2.720652762063742e-05
5.241841026422116e-01,2.822154614911258e-05
5.339491231767536e-01,2.927427424006201e-05
5.438960561835728e-01,3.036610375937526e-05
5.540282905083406e-01,3.149847742223267e-05
5.643492781275014e-01,3.267289062035609e-05
5.748625353243351e-01,3.389089331313729e-05
5.855716438869285e-01,3.515409198477110e-05
5.964802523284637e-01,3.646415166958430e-05
6.075920771302394e-01,3.782279804781743e-05
6.189109040078481e-01,3.923181961418331e-05
6.304405892009410e-01,4.069306992159595e-05
6.421850607870204e-01,4.220846990253319e-05
6.541483200197059e-01,4.378001027056884e-05
6.663344426919318e-01,4.540975400468315e-05
6.787475805245391e-01,4.709983891903596e-05
6.913919625807360e-01,4.885248032096310e-05
7.042718967069078e-01,5.066997376003455e-05
7.173917710002684e-01,5.255469787109271e-05
7.307560553038516e-01,5.450911731426934e-05
7.443693027293533e-01,5.653578581506324e-05
7.582361512083433e-01,5.863734930764297e-05
7.723613250723730e-01,6.081654918462487e-05
7.867496366625197e-01,6.307622565666294e-05
8.014059879689173e-01,6.541932122527388e-05
8.163353723008244e-01,6.784888427240914e-05
8.315428759878098e-01,7.036807277037705e-05
8.470336801126263e-01,7.298015811580633e-05
8.628130622763661e-01,7.568852909143513e-05
8.788863983965015e-01,7.849669595960188e-05
8.952591645384185e-01,8.140829469140617e-05
9.119369387810718e-01,8.442709133560200e-05
9.289254031173947e-01,8.755698653137848e-05
9.462303453901110e-01,9.080202016927779e-05
9.638576612636107e-01,9.416637620459258e-05
9.818133562325578e-01,9.765438762767903e-05
1.000103547667918e+00,1.012705415957157e-04
1.018734466901101e+00,1.050194847305280e-04
1.037712461346929e+00,1.089060285871924e-04
1.057043996666151e+00,1.129351552982219e-04
1.076735658968251e+00,1.171120233982244e-04
1.096794157055277e+00,1.214419738340108e-04
1.117226324707491e+00,1.259305361652163e-04
1.138039123011574e+00,1.305834349605740e-04
1.159239642732230e+00,1.354065963950681e-04
1.180835106727943e+00,1.404061550532562e-04
1.202832872411763e+00,1.455884609441342e-04
1.225240434257911e+00,1.509600867329709e-04
1.248065426355099e+00,1.565278351956090e-04
1.271315625007399e+00,1.622987469007800e-04
1.294998951383580e+00,1.682801081260297e-04
1.319123474215786e+00,1.744794590128898e-04
1.343697412548490e+00,1.809046019669694e-04
1.368729138538668e+00,1.875636103086566e-04
1.394227180308124e+00,1.944648371801411e-04
1.420200224848962e+00,2.016169247144668e-04
1.446657120983177e+00,2.090288134723173e-04
1.473606882377380e+00,2.167097521522150e-04
1.501058690613693e+00,2.246693075797770e-04
1.529021898317839e+00,2.329173749816193e-04
1.557506032345515e+00,2.414641885494346e-04
1.586520797028122e+00,2.503203322996786e-04
1.616076077478953e+00,2.594967512341934e-04
1.646181942960981e+00,2.690047628069669e-04
1.676848650317382e+00,2.788560687020790e-04
1.708086647465962e+00,2.890627669276964e-04
1.739906576958686e+00,2.996373642307859e-04
1.772319279607517e+00,3.105927888369675e-04
1.805335798177798e+00,3.219424035196681e-04
1.838967381150437e+00,3.337000190024316e-04
1.873225486554187e+00,3.458799076979003e-04
1.908121785869305e+00,3.584968177865999e-04
1.943668168003940e+00,3.715659876382393e-04
1.979876743344595e+00,3.851031605777649e-04
2.016759847882045e+00,3.991245999978819e-04
2.054330047414116e+00,4.136471048191850e-04
2.092600141826762e+00,4.286880252984079e-04
2.131583169454885e+00,4.442652791845956e-04
2.171292411524400e+00,4.603973682222526e-04
2.211741396677052e+00,4.771033949996755e-04
2.252943905579521e+00,4.944030801397709e-04
2.294913975618390e+00,5.123167798296648e-04
2.337665905682582e+00,5.308655036843249e-04
2.381214261034881e+00,5.500709329382454e-04
2.425573878274211e+00,5.699554389579586e-04
2.470759870390350e+00,5.905421020667566e-04
2.516787631912818e+00,6.118547306715096e-04
2.563672844155672e+00,6.339178806798224e-04
2.611431480560018e+00,6.567568751940436e-04
2.660079812136041e+00,6.803978244667157e-04
2.709634413006413e+00,7.048676461000228e-04
2.760112166052979e+00,7.301940854695791e-04
2.811530268668624e+00,7.564057363505135e-04
2.863906238616295e+00,7.835320617212573e-04
2.917257919997178e+00,8.116034147176634e-04
2.971603489330043e+00,8.406510597071380e-04
3.026961461743852e+00,8.707071934492569e-04
3.083350697285723e+00,9.018049663059325e-04
3.140790407346409e+00,9.339785034605048e-04
3.199300161205473e+00,9.672629261011865e-04
3.258899892698397e+00,1.001694372520071e-03
3.319609907007889e+00,1.037310019074355e-03
3.381450887581707e+00,1.074148100951581e-03
3.444443903179357e+00,1.112247932675502e-03
3.508610415050059e+00,1.151649928283564e-03
3.573972284244435e+00,1.192395621101095e-03
3.640551779062409e+00,1.234527683030827e-03
3.708371582639842e+00,1.278089943269632e-03
3.777454800676516e+00,1.323127406357014e-03
3.847824969308067e+00,1.369686269452082e-03
3.919506063124572e+00,1.417813938727458e-03
3.992522503338514e+00,1.467559044759627e-03
4.066899166104903e+00,1.518971456785752e-03
4.142661390996394e+00,1.572102295686843e-03
4.219834989636309e+00,1.627003945546360e-03
4.298446254492435e+00,1.683730063621729e-03
4.378521967834689e+00,1.742335588554049e-03
4.460089410859632e+00,1.802876746628017e-03
4.543176372984970e+00,1.865411055880204e-03
4.627811161317202e+00,1.929997327838846e-03
4.714022610295635e+00,1.996695666662431e-03
4.801840091516070e+00,2.065567465427466e-03
4.891293523737472e+00,2.136675399297725e-03
4.982413383075080e+00,2.210083415288116e-03
5.075230713383387e+00,2.285856718315863e-03
5.169777136832545e+00,2.364061753209879e-03
5.266084864681807e+00,2.444766182326134e-03
5.364186708253661e+00,2.528038858392110e-03
5.464116090112401e+00,2.613949792177209e-03
5.565907055450945e+00,2.702570114558131e-03
5.669594283689778e+00,2.793972032518524e-03
5.775213100291971e+00,2.888228778590706e-03
5.882799488798303e+00,2.985414553213608e-03
5.992390103086579e+00,3.085604459445596e-03
6.104022279859341e+00,3.188874429432712e-03
6.217734051364196e+00,3.295301141992738e-03
6.333564158351121e+00,3.404961930632605e-03
6.451552063271146e+00,3.517934681271141e-03
6.571737963720919e+00,3.634297718890885e-03
6.694162806137718e+00,3.754129682291274e-03
6.818868299749608e+00,3.877509386061000e-03
6.945896930785453e+00,4.004515668829402e-03
7.075291976949660e+00,4.135227226795242e-03
7.207097522166571e+00,4.269722431465887e-03
7.341358471599523e+00,4.408079130470561e-03
7.478120566949706e+00,4.550374430237771e-03
7.617430402040009e+00,4.696684459248720e-03
7.759335438689199e+00,4.847084110495791e-03
7.903884022881797e+00,5.001646761686913e-03
8.051125401239204e+00,5.160443971643384e-03
8.201109737797646e+00,5.323545151239540e-03
8.353888131098691e+00,5.491017207127424e-03
8.509512631598138e+00,5.662924156378145e-03
8.668036259399226e+00,5.839326710053173e-03
8.829513022316172e+00,6.020281823593204e-03
8.993997934274240e+00,6.205842211779226e-03
9.161547034052576e+00,2.213360081421774e-02
9.332217404376188e+00,2.232851027878092e-02
9.506067191363615e+00,2.252815228538814e-02
9.683155624336871e+00,2.273255694048917e-02
9.863543036000435e+00,2.294174706428848e-02
1.004729088299614e+01,2.315573743744592e-02
1.023446176684102e+01,2.337453399215956e-02
1.042511945525512e+01,2.359813294398497e-02
1.061932890388676e+01,2.382651986051824e-02
1.081715627844240e+01,2.405966866282997e-02
1.101866897722876e+01,2.429754055527997e-02
1.122393565411500e+01,2.454008287906460e-02
1.143302624192251e+01,2.478722788453660e-02
1.164601197625054e+01,2.503889141694053e-02
1.186296541974562e+01,2.529497150944298e-02
1.208396048682313e+01,2.555534687346271e-02
1.230907246884935e+01,2.581973943648577e-02
1.253837805979270e+01,2.608118763988886e-02
1.277195538235278e+01,2.633572803030373e-02
1.300988401457621e+01,2.658318406803675e-02
1.325224501696827e+01,2.682337755909519e-02
1.349912096010958e+01,2.705612875364213e-02
1.375059595278732e+01,2.728125609222559e-02
1.400675567065043e+01,2.749857793974360e-02
1.426768738539870e+01,2.770791008328424e-02
1.453347999451555e+01,2.790906874624413e-02
1.480422405155474e+01,2.810186978777051e-02
1.508001179699132e+01,2.828612868437693e-02
1.536093718964724e+01,2.846166185069523e-02
1.564709593870244e+01,2.862828658350975e-02
1.593858553630222e+01,2.878582125254719e-02
1.623550529077211e+01,2.893408639335096e-02
1.653795636045147e+01,2.907290498880372e-02
1.684604178815739e+01,2.920210278971659e-02
1.715986653629058e+01,2.932151022489030e-02
1.747953752259527e+01,2.943096198159715e-02
1.780516365658535e+01,2.953029618433537e-02
1.813685587664894e+01,2.961936074932791e-02
1.847472718784434e+01,2.969800699816954e-02
1.881889270039996e+01,2.976609659017296e-02
1.916946966893153e+01,2.982349959925151e-02
1.952657753238989e+01,2.987009651852602e-02
1.989033795475292e+01,2.990577943812308e-02
2.026087486647555e+01,2.993045389733624e-02
2.063831450671195e+01,2.994403798025413e-02
2.102278546632428e+01,2.994646775021118e-02
2.141441873169260e+01,2.993769782935740e-02
2.181334772934095e+01,2.992302766325128e-02
2.221970837139482e+01,2.990784046088234e-02
2.263363910188534e+01,2.989210691722775e-02
2.305528094391614e+01,2.987581484536864e-02
2.348477754770888e+01,2.985894033062953e-02
2.392227523954381e+01,2.984146864684679e-02
2.436792307161200e+01,2.982337508044234e-02
2.482187287279636e+01,2.980463976888532e-02
2.528427930039856e+01,2.978524084440778e-02
2.575529989282964e+01,2.976515563232658e-02
2.623509512328216e+01,2.974436083656419e-02
2.672382845440223e+01,2.972283215852903e-02
2.722166639397997e+01,2.970054488718330e-02
2.772877855167756e+01,2.967747344372563e-02
2.824533769681386e+01,2.965359086991099e-02
2.877151981722571e+01,2.962887138860047e-02
2.930750417922565e+01,2.960328550773346e-02
2.985347338867658e+01,2.957680474325520e-02
3.040961345320427e+01,2.954939922981517e-02
3.097611384556874e+01,2.952103841879442e-02
3.155316756821616e+01,2.949169020740659e-02
3.214097121903345e+01,2.946132247822436e-02
3.273972505832761e+01,2.942990161817995e-02
3.334963307705295e+01,2.939739218169575e-02
3.397090306630928e+01,2.936376050716114e-02
3.460374668813478e+01,2.932896835569198e-02
3.524837954761768e+01,2.929297784218731e-02
3.590502126635130e+01,2.925575238764225e-02
3.657389555725745e+01,2.921725007404927e-02
3.725523030080382e+01,2.917743046807630e-02
3.794925762264108e+01,2.913625172329396e-02
3.865621397268640e+01,2.909367039435531e-02
3.937634020568013e+01,2.904964187080406e-02
4.010988166324324e+01,2.900412144017648e-02
4.085708825746337e+01,2.895706131352747e-02
4.161821455603799e+01,2.890841374309066e-02
4.239351986900374e+01,2.885812940084933e-02
4.318326833708138e+01,2.880615801007317e-02
4.398772902166659e+01,2.875244651246683e-02
4.480717599649718e+01,2.869694353472137e-02
4.564188844102792e+01,2.863959341585495e-02
4.649215073554495e+01,2.858034123538248e-02
4.735825255805195e+01,2.851912921024550e-02
4.824048898296135e+01,2.845589790334209e-02
4.913916058162390e+01,2.839058969108832e-02
5.005457352473110e+01,2.832314258316996e-02
5.098703968662532e+01,2.825349423669244e-02
5.193687675155295e+01,2.818158107069015e-02
5.290440832189717e+01,2.810733773305577e-02
5.388996402842676e+01,2.803069837350795e-02
5.489387964259888e+01,2.795159495572029e-02
5.591649719095391e+01,2.786995900559186e-02
5.695816507164129e+01,2.778572021114811e-02
5.801923817311620e+01,2.769880743079322e-02
5.910007799504739e+01,2.760914814774561e-02
6.020105277147739e+01,2.751666892009192e-02
6.132253759627717e+01,2.742129505078420e-02
6.246491455093770e+01,2.732295061263626e-02
6.362857283474236e+01,2.722155943502861e-02
6.481390889736416e+01,2.711704347308649e-02
6.602132657393322e+01,2.700932490929282e-02
6.725123722262036e+01,2.689832442555719e-02
6.850405986478373e+01,2.678396414015449e-02
6.978022132772627e+01,2.666615960970353e-02
7.108015639011255e+01,2.654483398378154e-02
7.240430793009482e+01,2.641990594128113e-02
7.375312707619790e+01,2.629129390580552e-02
7.512707336101559e+01,2.615891769280071e-02
7.652661487776989e+01,2.602269636318525e-02
7.795222843978682e+01,2.588255006713326e-02
7.940439974294326e+01,2.573839914352617e-02
8.088362353113982e+01,2.559016528198248e-02
8.239040376485640e+01,2.543777130245081e-02
8.392525379284778e+01,2.528114043246226e-02
8.548869652703766e+01,2.512019917487191e-02
8.708126462067091e+01,2.495487572198067e-02
8.870350064978443e+01,2.478509922083956e-02
9.035595729805891e+01,2.461080232662734e-02
9.203919754511385e+01,2.443192437963012e-02
9.375379485831064e+01,2.424840215748096e-02
9.550033338812855e+01,2.406018033804913e-02
9.727940816718041e+01,8.129663110341755e-03
