# energy,pi_pi_pi0,pi_e_ve,pi_mu_vm,pi_pi
2.487993956432261e-02,7.874405526022794e-09,1.661049364527770e-08,2.146085768809666e-08,1.834176800215748e-10
2.534342771575479e-02,8.170453512688059e-09,1.723491401946731e-08,2.226763688634493e-08,1.903125086883632e-10
2.581555018343853e-02,8.477630450510756e-09,1.788280334705249e-08,2.310474041267449e-08,1.974664696748947e-10
2.629646781596704e-02,8.796354619640668e-09,1.855504347323452e-08,2.397330778168091e-08,2.048892992394836e-10
2.678634445838043e-02,9.127060016891687e-09,1.925254936486754e-08,2.487452131203856e-08,2.125910992933732e-10
2.728534700798645e-02,9.470196946040265e-09,1.997627035371279e-08,2.580960773345065e-08,2.205823511238348e-10
2.779364547122114e-02,9.826232630280661e-09,2.072719142631539e-08,2.677983985387513e-08,2.288739296317709e-10
2.831141302156882e-02,1.019565184766785e-08,2.150633456224938e-08,2.778653828928425e-08,2.374771181030825e-10
2.883882605856095e-02,1.057895759040998e-08,2.231476012254200e-08,2.883107325830012e-08,2.464036235337764e-10
2.937606426787412e-02,1.097667174890477e-08,2.315356829015610e-08,2.991486644413632e-08,2.556655925295416e-10
2.992331068254766e-02,1.138933582144730e-08,2.402390056447942e-08,3.103939292636598e-08,2.652756278012893e-10
3.048075174534159e-02,1.181751165057194e-08,2.492694131184262e-08,3.220618318513162e-08,2.752468052789599e-10
3.104857737225631e-02,1.226178218702663e-08,2.586391937416295e-08,3.341682518050893e-08,2.855926918667281e-10
3.162698101723550e-02,1.272275228241548e-08,2.683610973788930e-08,3.467296650983902e-08,2.963273638636052e-10
3.221615973807448e-02,1.320104951158418e-08,2.784483526550529e-08,3.597631664594765e-08,3.074654260743273e-10
3.281631426355636e-02,1.369732502586325e-08,2.889146849193129e-08,3.732864925928028e-08,3.190220316363551e-10
3.342764906183875e-02,1.421225443832532e-08,2.997743348825368e-08,3.873180462709325e-08,3.310129025897601e-10
3.405037241011458e-02,1.474653874225657e-08,3.110420779530045e-08,4.018769213296067e-08,3.434543512177919e-10
3.468469646557059e-02,1.530090526408675e-08,3.227332442967592e-08,4.169829285997660e-08,3.563633021869324e-10
3.533083733766765e-02,1.587610865206924e-08,3.348637396496507e-08,4.326566228115894e-08,3.697573155163409e-10
3.598901516176770e-02,1.647293190205046e-08,3.474500669091910e-08,4.489193305069272e-08,3.836546104076895e-10
3.665945417413219e-02,1.709218742171847e-08,3.605093485353850e-08,4.657931789978568e-08,3.980740899675582e-10
3.734238278831767e-02,1.773471813477225e-08,3.740593497907862e-08,4.833011264104963e-08,4.130353668557440e-10
3.803803367299462e-02,1.840139862650711e-08,3.881185028511622e-08,5.014669928546829e-08,4.285587898940973e-10
3.874664383121593e-02,1.909313633236786e-08,4.027059318193127e-08,5.203154927616224e-08,4.446654716717724e-10
3.946845468116204e-02,1.981087277107890e-08,4.178414786758077e-08,5.398722684332001e-08,4.613773171841272e-10
4.020371213839030e-02,2.055558482402088e-08,4.335457302016614e-08,5.601639248482621e-08,4.787170535438834e-10
4.095266669961660e-02,2.132828606258609e-08,4.498400459092734e-08,5.812180657728760e-08,4.967082608046113e-10
4.171557352805770e-02,2.213002812530902e-08,4.667465870193103e-08,6.030633312233226e-08,5.153754039380748e-10
4.249269254036343e-02,2.296190214663599e-08,4.842883465226134e-08,6.257294363323960e-08,5.347438660085368e-10
4.328428849516837e-02,2.382504023926742e-08,5.024891803676674e-08,6.492472116714683e-08,5.548399825887149e-10
4.409063108329310e-02,2.472061703207837e-08,5.213738398156804e-08,6.736486450827349e-08,5.756910774637494e-10
4.491199501962588e-02,2.564985126569793e-08,5.409680050068840e-08,6.989669250780789e-08,5.973254996712644e-10
4.574866013671595e-02,2.661400744790580e-08,5.612983197832899e-08,7.252364858631027e-08,6.197726619273916e-10
4.660091148011036e-02,2.761439757108504e-08,5.823924278148242e-08,7.524930540470441e-08,6.430630804904852e-10
4.746903940546688e-02,2.865238289405341e-08,6.042790100774968e-08,7.807736971015714e-08,6.672284165161711e-10
4.835333967747599e-02,2.972937579068255e-08,6.269878237340898e-08,8.101168736337796e-08,6.923015189593736e-10
4.925411357062575e-02,3.084684166780433e-08,6.505497424697090e-08,8.405624855411593e-08,7.183164690810324e-10
5.017166797184367e-02,3.200630095499627e-08,6.749967983364952e-08,8.721519321188103e-08,7.453086266193448e-10
5.110631548505085e-02,3.320933116893593e-08,7.003622251638201e-08,9.049281661918162e-08,7.733146776876362e-10
5.205837453766378e-02,3.445756905511316e-08,7.266805035923670e-08,9.389357523483782e-08,8.023726844632114e-10
5.302816948908021e-02,3.575271280979415e-08,7.539874077926812e-08,9.742209273521402e-08,8.325221367339708e-10
5.401603074118592e-02,3.709652438523844e-08,7.823200539310160e-08,1.010831662815043e-07,8.638040053720304e-10
5.502229485092022e-02,3.849083188128282e-08,8.117169504476408e-08,1.048817730215075e-07,8.962607978061733e-10
5.604730464493833e-02,3.993753202652104e-08,8.422180502151929e-08,1.088230768346420e-07,9.299366155675948e-10
5.709140933640992e-02,4.143859275242986e-08,8.738648046471623e-08,1.129124353292754e-07,9.648772139861981e-10
5.815496464399336e-02,4.299605586391579e-08,9.067002198292060e-08,1.171554071017818e-07,1.001130064117538e-09
5.923833291302646e-02,4.461203980988715e-08,9.407689147486778e-08,1.215577592670881e-07,1.038744416983483e-09
6.034188323897479e-02,4.628874255758989e-08,9.761171817005606e-08,1.261254752708363e-07,1.077771370212757e-09
6.146599159317973e-02,4.802844457458522e-08,1.012793048950890e-07,1.308647629936584e-07,1.118263937170694e-09
6.261104095094912e-02,4.983351192239141e-08,1.050846345741753e-07,1.357820631584589e-07,1.160277118670855e-09
6.377742142203408e-02,5.170639946596176e-08,1.090328769725078e-07,1.408840580519952e-07,1.203867977364597e-09
6.496553038353647e-02,5.364965420332672e-08,1.131293956915652e-07,1.461776805724733e-07,1.249095714908224e-09
6.617577261529232e-02,5.566591871988828e-08,1.173797554257146e-07,1.516701236153036e-07,1.296021752011029e-09
6.740856043777727e-02,5.775793477202292e-08,1.217897294898433e-07,1.573688498096173e-07,1.344709811471402e-09
6.866431385258105e-02,5.992854700482175e-08,1.263653076281035e-07,1.632816016186080e-07,1.395226004312064e-09
6.994346068549895e-02,6.218070680897666e-08,1.311127041142308e-07,1.694164118172496e-07,1.447638919129682e-09
7.124643673228880e-02,6.451747632200760e-08,1.360383661542840e-07,1.757816143614404e-07,1.502019714778290e-09
7.257368590714335e-02,6.694203257921920e-08,1.411489826030510e-07,1.823858556631469e-07,1.558442216510431e-09
7.392566039392855e-02,6.945767181997535e-08,1.464514930057880e-07,1.892381062866593e-07,1.616983015704442e-09
7.530282080023912e-02,7.206781395508779e-08,1.519530969773836e-07,1.963476730816298e-07,1.677721573311096e-09
7.670563631432423e-02,7.477600720133145e-08,1.576612639314909e-07,2.037242117691444e-07,1.740740327157702e-09
7.813458486493632e-02,7.758593288932068e-08,1.635837431726322e-07,2.113777399976817e-07,1.806124803252857e-09
7.959015328415793e-02,8.050141045121383e-08,1.697285743647606e-07,2.193186508864336e-07,1.873963731240330e-09
8.107283747326170e-02,8.352640259495380e-08,1.761040983902624e-07,2.275577270741110e-07,1.944349164156060e-09
8.258314257166023e-02,8.666502067199931e-08,1.827189686138971e-07,2.361061552920235e-07,2.017376602647821e-09
8.412158312900332e-02,8.992153024576296e-08,1.895821625667100e-07,2.449755414809236e-07,2.093145123823146e-09
8.568868328048121e-02,9.330035686823722e-08,1.967029940655045e-07,2.541779264718164e-07,2.171757514897017e-09
8.728497692539340e-02,9.680609207256825e-08,2.040911257840351e-07,2.637258022516882e-07,2.253320411817276e-09
8.891100790904434e-02,1.004434995896264e-07,2.117565822926805e-07,2.736321288358819e-07,2.337944443052194e-09
9.056733020802726e-02,1.042175217969178e-07,2.197097635839694e-07,2.839103517696402e-07,2.425744378731414e-09
9.225450811895995e-02,1.081332864084940e-07,2.279614591019744e-07,2.945744202821779e-07,2.516839285338532e-09
9.397311645073650e-02,1.121961134148369e-07,2.365228622942518e-07,3.056388061175032e-07,2.611352686160856e-09
9.572374072036016e-02,1.164115222820254e-07,2.454055857056877e-07,3.171185230670921e-07,2.709412727709390e-09
9.750697735242475e-02,1.207852394198411e-07,2.546216766343292e-07,3.290291472304600e-07,2.811152352330005e-09
9.932343388231203e-02,1.253232059288226e-07,2.641836333700154e-07,3.413868380306208e-07,2.916709477234718e-09
1.011737291631745e-01,1.300315856366514e-07,2.741044220373810e-07,3.542083600124226e-07,3.026227180190532e-09
1.030584935767739e-01,1.349167734346362e-07,2.843974940656081e-07,3.675111054527796e-07,3.139853892111907e-09
1.049783692482478e-01,1.399854039254605e-07,2.950768043081130e-07,3.813131178128826e-07,3.257743596811952e-09
1.069340102648767e-01,1.452443603937714e-07,3.061568298362129e-07,3.956331160635843e-07,3.380056038176802e-09
1.089260828989264e-01,1.507007841116157e-07,3.176525894316929e-07,4.104905199162915e-07,3.506956935037256e-09
1.109552658346425e-01,1.563620839911743e-07,3.295796638041109e-07,4.259054759928943e-07,3.638618204021855e-09
1.130222503994728e-01,1.622359465977046e-07,3.419542165596220e-07,4.418988849694845e-07,3.775218190685859e-09
1.151277407995972e-01,1.683303465360766e-07,3.547930159490847e-07,4.584924297298969e-07,3.916941909221450e-09
1.172724543598457e-01,1.746535572247875e-07,3.681134574242289e-07,4.757086045664254e-07,4.063981291065518e-09
1.194571217680859e-01,1.812141620718457e-07,3.819335870317138e-07,4.935707454664367e-07,4.216535442733010e-09
1.216824873241620e-01,1.880210660674504e-07,3.962721256759979e-07,5.121030615250189e-07,4.374810913215746e-09
1.239493091934731e-01,1.950835078089444e-07,4.111484942830693e-07,5.313306675252820e-07,4.539021971298977e-09
1.262583596652741e-01,2.024110719740839e-07,4.265828398982590e-07,5.512796177294386e-07,4.709390893160796e-09
1.286104254157887e-01,2.100137022592649e-07,4.425960627525644e-07,5.719769409253784e-07,4.886148260632830e-09
1.310063077762246e-01,2.179017147999582e-07,4.592098443331739e-07,5.934506767750830e-07,5.069533270514310e-09
1.334468230057804e-01,2.260858120912368e-07,4.764466764951753e-07,6.157299135129194e-07,5.259794055345968e-09
1.359328025697396e-01,2.345770974269447e-07,4.943298916527855e-07,6.388448270436102e-07,5.457188016064890e-09
1.384650934227444e-01,2.433870898767321e-07,5.128836940898283e-07,6.628267214914863e-07,5.661982166976792e-09
1.410445582973464e-01,2.525277398208918e-07,5.321331924306312e-07,6.877080712545205e-07,5.874453493497932e-09
1.436720759979339e-01,2.620114450636683e-07,5.521044333140149e-07,7.135225646185850e-07,6.094889323135341e-09
1.463485417001334e-01,2.718510675464636e-07,5.728244363145896e-07,7.403051489893978e-07,6.323587710190962e-09
1.490748672557894e-01,2.820599506831572e-07,5.943212301571856e-07,7.680920778017131e-07,6.560857834692904e-09
1.518519815036256e-01,2.926519373405703e-07,6.166238902718976e-07,7.969209591674793e-07,6.807020416075110e-09
1.546808305856932e-01,3.036413884879511e-07,6.397625777389544e-07,8.268308063269306e-07,7.062408142145701e-09
1.575623782697142e-01,3.150432025402328e-07,6.637685796743956e-07,8.578620899689099e-07,7.327366113903624e-09
1.604976062774305e-01,3.268728354207256e-07,6.886743511093894e-07,8.900567924891138e-07,7.602252306783505e-09
1.634875146190684e-01,3.391463213698412e-07,7.145135584179334e-07,9.234584642574570e-07,7.887438048929444e-09
1.665331219340353e-01,3.518802945274263e-07,7.413211243496545e-07,9.581122819683257e-07,8.183308517120081e-09
1.696354658379618e-01,3.650920113172904e-07,7.691332747264759e-07,9.940651091501702e-07,8.490263250989790e-09
1.727956032762102e-01,3.787993736635557e-07,7.979875868640369e-07,1.031365558913641e-06,8.808716686213791e-09
1.760146108839676e-01,3.930209530695464e-07,8.279230397809400e-07,1.070064059020362e-06,9.139098707349154e-09
1.792935853530475e-01,4.077760155910541e-07,8.589800662611781e-07,1.110212919357369e-06,9.481855221048339e-09
1.826336438055245e-01,4.230845477369777e-07,8.912006068374423e-07,1.151866401905346e-06,9.837448750387697e-09
1.860359241743293e-01,4.389672833315459e-07,9.246281657654359e-07,1.195080793291950e-06,1.020635905107975e-08
1.895015855909343e-01,4.554457313735748e-07,9.593078690618551e-07,1.239914480024814e-06,1.058908375036586e-08
1.930318087802606e-01,4.725422049295049e-07,9.952865246812776e-07,1.286428026502224e-06,1.098613900941389e-08
1.966277964629425e-01,4.902798510983081e-07,1.032612684909924e-06,1.334684255903001e-06,1.139806021007537e-08
2.002907737650851e-01,5.086826820877330e-07,1.071336711057025e-06,1.384748334060758e-06,1.182540266688674e-08
2.040219886356558e-01,5.277756074428029e-07,1.111510840527428e-06,1.436687856431484e-06,1.226874236523098e-08
2.078227122716511e-01,5.475844674689602e-07,1.153189256362049e-06,1.490572938267332e-06,1.272867672660827e-08
2.116942395511842e-01,5.681360678938010e-07,1.196428159335889e-06,1.546476308113507e-06,1.320582540199827e-08
2.156378894746398e-01,5.894582158129337e-07,1.241285842706508e-06,1.604473404749370e-06,1.370083109433125e-08
2.196550056140479e-01,6.115797569671494e-07,1.287822769709167e-06,1.664642477699182e-06,1.421436041112142e-08
2.237469565708287e-01,6.345306143998083e-07,1.336101653898272e-06,1.727064691442417e-06,1.474710474835304e-08
2.279151364420652e-01,6.583418285451111e-07,1.386187542438289e-06,1.791824233458196e-06,1.529978120674845e-08
2.321609652954611e-01,6.830455987997687e-07,1.438147902450947e-06,1.859008426243194e-06,1.587313354158693e-08
2.364858896531474e-01,7.086753266324775e-07,1.492052710529370e-06,1.928707843447380e-06,1.646793314728456e-08
2.408913829845022e-01,7.352656602875794e-07,1.547974545533632e-06,2.001016430276996e-06,1.708498007798784e-08
2.453789462081498e-01,7.628525411413158e-07,1.605988684786323e-06,2.076031628319610e-06,1.772510410547747e-08
2.499501082033131e-01,7.914732517712124e-07,1.666173203790896e-06,2.153854504951473e-06,1.838916581572503e-08
2.546064263306912e-01,8.211664658012872e-07,1.728609079599859e-06,2.234589887493157e-06,1.907805774549123e-08
2.593494869630404e-01,8.519722995880641e-07,1.793380297964380e-06,2.318346502285314e-06,1.979270556040378e-08
2.641809060256396e-01,8.839323658146905e-07,1.860573964401479e-06,2.405237118862444e-06,2.053406927600286e-08
2.691023295468239e-01,9.170898290628952e-07,1.930280419319762e-06,2.495378699408910e-06,2.130314452329388e-08
2.741154342187744e-01,9.514894634350234e-07,2.002593357349610e-06,2.588892553687872e-06,2.210096386040111e-08
2.792219279687543e-01,9.871777123009797e-07,2.077609951028793e-06,2.685904499640566e-06,2.292859813197087e-08
2.844235505409871e-01,1.024202750247598e-06,2.155430978999806e-06,2.786545029860300e-06,2.378715787803016e-08
2.897220740893744e-01,1.062614547310732e-06,2.236160958880634e-06,2.890949484152710e-06,2.467779479406589e-08
2.951193037812561e-01,1.102464935573252e-06,2.319908284976314e-06,2.999258228401236e-06,2.560170324415055e-08
3.006170784124161e-01,1.143807678215067e-06,2.406785371004430e-06,3.111616839964465e-06,2.656012182900316e-08
3.062172710335475e-01,1.186698541104441e-06,2.496908798013747e-06,3.228176299839900e-06,2.755433501093965e-08
3.119217895883862e-01,1.231195367022972e-06,2.590399467681341e-06,3.349093191836912e-06,2.858567479773358e-08
3.177325775637337e-01,1.277358152619982e-06,2.687382761180016e-06,3.474529909010093e-06,2.965552248747742e-08
3.236516146515880e-01,1.325249128195407e-06,2.787988703814405e-06,3.604654867612966e-06,3.076531047660630e-08
3.296809174236098e-01,1.374932840413844e-06,2.892352135630977e-06,3.739642728841051e-06,3.191652413331986e-08
3.358225400181536e-01,1.426476238056052e-06,3.000612888214255e-06,3.879674628642602e-06,3.311070373871346e-08
3.420785748400981e-01,1.479948760917969e-06,3.112915967888785e-06,4.024938415884997e-06,3.434944649800979e-08
3.484511532737108e-01,1.535422431971199e-06,3.229411745553914e-06,4.175628899174620e-06,3.563440862436081e-08
3.549424464087969e-01,1.592971952903012e-06,3.350256153386250e-06,4.331948102638525e-06,3.696730749777619e-08
3.615546657803719e-01,1.652674803157982e-06,3.475610888652580e-06,4.494105530986563e-06,3.834992390181801e-08
3.682900641221157e-01,1.714611342607808e-06,3.605643624884340e-06,4.662318444183790e-06,3.978410434079209e-08
3.751509361338620e-01,1.778864917980230e-06,3.740528230673245e-06,4.836812142074151e-06,4.127176344025681e-08
3.821396192633851e-01,1.845521973182631e-06,3.880444996356407e-06,5.017820259308192e-06,4.281488643376540e-08
3.892584945027513e-01,1.914672163660651e-06,4.025580868868408e-06,5.205585070939503e-06,4.441553173885450e-08
3.965099871995048e-01,1.986408474937080e-06,4.176129695047063e-06,5.400357809067127e-06,4.607583362539189e-08
4.038965678829656e-01,2.060827345481365e-06,4.332292473689261e-06,5.602398990913850e-06,4.779800497950028e-08
4.114207531059201e-01,2.138028794065402e-06,4.494277616663204e-06,5.811978758743625e-06,4.958434016637920e-08
4.190851063019923e-01,2.218116551766613e-06,4.662301219393540e-06,6.029377232034984e-06,5.143721799545756e-08
4.268922386589860e-01,2.301198198785042e-06,4.836587341046507e-06,6.254884872341288e-06,5.335910479142192e-08
4.348448100084971e-01,2.387385306246928e-06,5.017368294752944e-06,6.488802861283276e-06,5.535255757478119e-08
4.429455297320983e-01,2.476793583173272e-06,5.204884948218302e-06,6.731443492134187e-06,5.742022735574785e-08
4.511971576844055e-01,2.569543028798068e-06,5.399387035080261e-06,6.983130575473290e-06,5.956486254533980e-08
4.596025051333391e-01,2.665758090427295e-06,5.601133477386399e-06,7.244199859399341e-06,6.178931248773175e-08
4.681644357179020e-01,2.765567827036390e-06,5.810392719576566e-06,7.514999464812066e-06,6.409653111801596e-08
4.768858664238005e-01,2.869106078810719e-06,6.027443074367223e-06,7.795890336286388e-06,6.648958074966591e-08
4.857697685772388e-01,2.976511642840616e-06,6.252573080947831e-06,8.087246709081652e-06,6.897163599613320e-08
4.948191688572283e-01,3.087928455189896e-06,6.486081875912758e-06,8.389456592845918e-06,7.154598783114994e-08
5.040371503267540e-01,3.203505779564159e-06,6.728279577365809e-06,8.702922272593716e-06,7.421604779245323e-08
5.134268534831512e-01,3.323398402813067e-06,6.979487682648492e-06,9.028060827554760e-06,7.698535233379748e-08
5.229914773280495e-01,3.447766837508698e-06,7.240039480157704e-06,9.365304668510451e-06,7.985756733027398e-08
5.327342804572485e-01,3.576777531850378e-06,7.510280475733183e-06,9.715102094255172e-06,8.283649274211280e-08
5.426585821708969e-01,3.710603087154924e-06,7.790568834110596e-06,1.007791786783994e-05,8.592606744230434e-08
5.527677636043544e-01,3.849422483199993e-06,8.081275835951505e-06,1.045423381327733e-05,8.913037421354276e-08
5.630652688801178e-01,3.993421311697297e-06,8.382786350977716e-06,1.084454943340812e-05,9.245364492016210e-08
5.735546062812078e-01,4.142792018181854e-06,8.695499327754082e-06,1.124938254965292e-05,9.590026586091091e-08
5.842393494464161e-01,4.297734152613030e-06,9.019828300680604e-06,1.166926996439483e-05,9.947478330858902e-08
5.951231385878160e-01,4.458454628993063e-06,9.356201914772218e-06,1.210476814676291e-05,1.031819092427503e-07
6.062096817309561e-01,4.625167994319101e-06,9.705064468822383e-06,1.255645394261065e-05,1.070265272818648e-07
6.175027559781573e-01,4.798096707195221e-06,1.006687647756492e-05,1.302492530950844e-05,1.110136988215230e-07
6.290062087953421e-01,4.977471426441878e-06,1.044211525346728e-05,1.351080207759492e-05,1.151486693854589e-07
6.407239593228383e-01,5.163531310051436e-06,1.083127550880753e-05,1.401472673715808e-05,1.194368751963722e-07
6.526599997106011e-01,5.356524324849951e-06,1.123486997870711e-05,1.453736525384435e-05,1.238839499737293e-07
6.648183964783076e-01,5.556707567237299e-06,1.165343006581140e-05,1.507940791242112e-05,1.284957319659347e-07
6.772032919007909e-01,5.764347595390018e-06,1.208750650733073e-05,1.564157019004701e-05,1.332782712244752e-07
6.898189054192810e-01,5.979720773323813e-06,1.253767006517554e-05,1.622459366003282e-05,1.382378371278574e-07
