# energy,pi_pi_pi0,pi_pi,mu_mu
3.784533544472523e-02,1.994110271814683e-07,5.186275506040654e-09,3.188008105569899e-11
3.855035582953194e-02,2.069052501878596e-07,5.381120685791270e-09,3.307750194000362e-11
3.926851003220953e-02,2.146810298428188e-07,5.583282500122526e-09,3.431987043287692e-11
4.000004272252298e-02,2.227489390728665e-07,5.793035492142546e-09,3.560887215399174e-11
4.074520312818794e-02,2.311199475446583e-07,6.010664495050110e-09,3.694625584683155e-11
4.150424511978076e-02,2.398054365357280e-07,6.236465017151782e-09,3.833383573743441e-11
4.227742729723028e-02,2.488172143616736e-07,6.470743641247035e-09,3.977349398098243e-11
4.306501307792087e-02,2.581675323805537e-07,6.713818438915407e-09,4.126718319949060e-11
4.386727078643680e-02,2.678691015960346e-07,6.966019400259442e-09,4.281692911396991e-11
4.468447374597840e-02,2.779351098816238e-07,7.227688879677531e-09,4.442483327456247e-11
4.551690037148123e-02,2.883792398491669e-07,7.499182058262149e-09,4.609307589227610e-11
4.636483426446997e-02,2.992156873856307e-07,7.780867423440659e-09,4.782391877607745e-11
4.722856430967931e-02,3.104591808830996e-07,8.073127266498960e-09,4.961970837924184e-11
4.810838477347492e-02,3.221250011878347e-07,8.376358198651606e-09,5.148287895900075e-11
4.900459540410766e-02,3.342290022951986e-07,8.690971686346501e-09,5.341595585367512e-11
4.991750153383564e-02,3.467876328182532e-07,9.017394606517805e-09,5.542155888163681e-11
5.084741418294864e-02,3.598179582588633e-07,9.356069822526797e-09,5.750240586660022e-11
5.179465016573038e-02,3.733376841112080e-07,9.707456781557656e-09,5.966131629390858e-11
5.275953219839477e-02,3.873651798287152e-07,1.007203213426347e-08,6.190121510265263e-11
5.374238900903295e-02,4.019195036865802e-07,1.045029037748695e-08,6.422513661863405e-11
5.474355544960843e-02,4.170204285732210e-07,1.084274452091059e-08,6.663622863337090e-11
5.576337261003869e-02,4.326884687452653e-07,1.124992677852256e-08,6.913775663453048e-11
5.680218793440198e-02,4.489449075819349e-07,1.167238928581699e-08,7.173310819337264e-11
5.786035533930886e-02,4.658118263760318e-07,1.211070484368116e-08,7.442579751498998e-11
5.893823533447900e-02,4.833121342000996e-07,1.256546768995711e-08,7.721947015734125e-11
6.003619514556411e-02,5.014695988877673e-07,1.303729429970113e-08,8.011790792529455e-11
6.115460883925898e-02,5.203088791717588e-07,1.352682421520238e-08,8.312503394612110e-11
6.229385745074321e-02,5.398555580215866e-07,1.403472090686085e-08,8.624491793311617e-11
6.345432911349706e-02,5.601361772255398e-07,1.456167266606459e-08,8.948178164426554e-11
6.463641919153559e-02,5.811782732632251e-07,1.510839353124868e-08,9.284000454312789e-11
6.584053041410624e-02,6.030104145166267e-07,1.567562424836094e-08,9.632412966936272e-11
6.706707301289569e-02,6.256622398694245e-07,1.626413326700472e-08,9.993886972660427e-11
6.831646486179267e-02,6.491644987461484e-07,1.687471777357496e-08,1.036891133956596e-10
6.958913161925455e-02,6.735490926446446e-07,1.750820476275251e-08,1.075799318812994e-10
7.088550687332591e-02,6.988491182173080e-07,1.816545214877064e-08,1.116165857012071e-10
7.220603228935883e-02,7.250989119585792e-07,1.884734991792012e-08,1.158045317259656e-10
7.355115776048489e-02,7.523340965583213e-07,1.955482132381195e-08,1.201494304792757e-10
7.492134156089043e-02,7.805916289828934e-07,2.028882412697277e-08,1.246571537079389e-10
7.631705050194718e-02,8.099098503480114e-07,2.105035188040486e-08,1.293337922314770e-10
7.773876009125127e-02,8.403285376498471e-07,2.184043526280219e-08,1.341856640816155e-10
7.918695469462529e-02,8.718889574232666e-07,2.266014346117578e-08,1.392193229422328e-10
8.066212770113798e-02,9.046339213986411e-07,2.351058560470459e-08,1.444415669007498e-10
8.216478169119819e-02,9.386078442312836e-07,2.439291225169493e-08,1.498594475223346e-10
8.369542860778040e-02,9.738568033803083e-07,2.530831693159925e-08,1.554802792587070e-10
8.525458993083967e-02,1.010428601216500e-06,2.625803774411573e-08,1.613116492037420e-10
8.684279685497613e-02,1.048372829441737e-06,2.724335901746390e-08,1.673614272085197e-10
8.846059047040886e-02,1.087740935905517e-06,2.826561302800698e-08,1.736377763689121e-10
9.010852194732140e-02,1.128586293907289e-06,2.932618178347004e-08,1.801491638992739e-10
9.178715272364127e-02,1.170964274076536e-06,3.042649887208472e-08,1.869043724062809e-10
9.349705469631762e-02,1.214932318925935e-06,3.156805138007520e-08,1.939125115774674e-10
9.523881041616235e-02,1.260550020176405e-06,3.275238187998730e-08,2.011830302995314e-10
9.701301328632068e-02,1.307879198956490e-06,3.398109049245291e-08,2.087257292220090e-10
9.882026776443929e-02,1.356983988982226e-06,3.525583702407503e-08,2.165507737824807e-10
1.006611895686004e-01,1.407930922827605e-06,3.657834318421581e-08,2.246687077100422e-10
1.025364058870925e-01,1.460789021399686e-06,3.795039488356941e-08,2.330904670243655e-10
1.044465555920885e-01,1.515629886736640e-06,3.937384461750585e-08,2.418273945482963e-10
1.063922894573047e-01,1.572527798251292e-06,4.085061393727823e-08,2.508912549525593e-10
1.083742703797148e-01,1.631559812547227e-06,4.238269601229779e-08,2.602942503518107e-10
1.103931736053937e-01,1.692805866939137e-06,4.397215828679445e-08,2.700490364719458e-10
1.124496869595687e-01,1.756348886813905e-06,4.562114523430103e-08,2.801687394092792e-10
1.145445110809566e-01,1.822274896973887e-06,4.733188121352095e-08,2.906669730029384e-10
1.166783596604662e-01,1.890673137108994e-06,4.910667342926660e-08,3.015578568425603e-10
1.188519596843472e-01,1.961636181549545e-06,5.094791500228753e-08,3.128560349341584e-10
1.210660516818689e-01,2.035260063457334e-06,5.285808815194329e-08,3.245766950478297e-10
1.233213899776133e-01,2.111644403618129e-06,5.483976749581663e-08,3.367355887717941e-10
1.256187429484676e-01,2.190892544004707e-06,5.689562347050840e-08,3.493490522981253e-10
1.279588932854045e-01,2.273111686285693e-06,5.902842587800586e-08,3.624340279664049e-10
1.303426382601393e-01,2.358413035461814e-06,6.124104756217255e-08,3.760080865924526e-10
1.327707899967543e-01,2.446911948817748e-06,6.353646822006788e-08,3.900894506102292e-10
1.352441757483832e-01,2.538728090384593e-06,6.591777835297201e-08,4.046970180559818e-10
1.377636381790507e-01,2.633985591115003e-06,6.838818336216380e-08,4.198503874247095e-10
1.403300356507609e-01,2.732813214980361e-06,7.095100779467719e-08,4.355698834300641e-10
1.429442425159355e-01,2.835344531206923e-06,7.360969974444551e-08,4.518765836998860e-10
1.456071494152991e-01,2.941718092875673e-06,7.636783541443454e-08,4.687923464406703e-10
1.483196635813135e-01,3.052077622118776e-06,7.922912384556013e-08,4.863398391054091e-10
1.510827091472651e-01,3.166572202153849e-06,8.219741181839163e-08,5.045425681004449e-10
1.538972274621105e-01,3.285356476406027e-06,8.527668893385034e-08,5.234249095681788e-10
1.567641774111866e-01,3.408590854976698e-06,8.847109287933136e-08,5.430121412837412e-10
1.596845357428961e-01,3.536441728727181e-06,9.178491488690030e-08,5.633304757050360e-10
1.626592974014779e-01,3.669081691255178e-06,9.522260539044864e-08,5.844070942169015e-10
1.656894758659778e-01,3.806689769051829e-06,9.878877988893120e-08,6.062701826115216e-10
1.687761034955325e-01,3.949451660137503e-06,1.024882250230567e-07,6.289489678486435e-10
1.719202318810872e-01,4.097559981485126e-06,1.063259048730573e-07,6.524737561406276e-10
1.751229322036643e-01,4.251214525550906e-06,1.103069674854277e-07,6.768759724088786e-10
1.783852955993074e-01,4.410622526243693e-06,1.144367516367979e-07,7.021882011597609e-10
1.817084335308226e-01,4.575998934676105e-06,1.187207938433820e-07,7.284442288297268e-10
1.850934781664458e-01,4.747566705052684e-06,1.231648356247396e-07,7.556790876510252e-10
1.885415827655638e-01,4.925557091063086e-06,1.277748310308852e-07,7.839291010911040e-10
1.920539220716214e-01,5.110209953161335e-06,1.325569544420900e-07,8.132319309205485e-10
1.956316927123476e-01,5.301774077125734e-06,1.375176086510400e-07,8.436266259662342e-10
1.992761136074377e-01,5.500507504307953e-06,1.426634332373455e-07,8.751536726082469e-10
2.029884263838299e-01,5.706677873994442e-06,1.480013132447371e-07,9.078550470810324e-10
2.067698957987187e-01,5.920562778318083e-06,1.535383881716325e-07,9.417742696412422e-10
2.106218101704481e-01,6.142450130173650e-06,1.592820612861234e-07,9.769564606667645e-10
2.145454818174318e-01,6.372638544606526e-06,1.652400092768033e-07,1.013448398753543e-09
2.185422475052506e-01,6.611437734160749e-06,1.714201922512423e-07,1.051298580878953e-09
2.226134689020779e-01,6.859168918689516e-06,1.778308640943148e-07,1.090557284702697e-09
2.267605330425908e-01,7.116165250149000e-06,1.844805831989912e-07,1.131276633078517e-09
2.309848528005213e-01,7.382772252914494e-06,1.913782235826281e-07,1.173510660852321e-09
2.352878673700128e-01,7.659348280176999e-06,1.985329864022310e-07,1.217315384024776e-09
2.396710427559421e-01,7.946264986997637e-06,2.059544118826034e-07,1.262748871358873e-09
2.441358722733767e-01,8.243907820617649e-06,2.136523916717648e-07,1.309871318515545e-09
2.486838770563357e-01,8.552676528642417e-06,2.216371816384910e-07,1.358745124803020e-09
2.533166065760292e-01,8.872985685739622e-06,2.299194151273243e-07,1.409434972628272e-09
2.580356391687514e-01,9.205265239513754e-06,2.385101166868989e-07,1.462007909741735e-09
2.628425825736078e-01,9.549961076242267e-06,2.474207162879522e-07,1.516533434369198e-09
2.677390744802600e-01,9.907535607182362e-06,2.566630640479239e-07,1.573083583327804e-09
2.727267830868745e-01,1.027846837618183e-05,2.662494454795918e-07,1.631733023225945e-09
2.778074076684648e-01,1.066325668935277e-05,2.761925972817641e-07,1.692559144849977e-09
2.829826791558225e-01,1.106241626759316e-05,2.865057236906235e-07,1.755642160843769e-09
2.882543607252319e-01,1.147648192276801e-05,2.972025134109217e-07,1.821065206790300e-09
2.936242483991709e-01,1.190600825838986e-05,3.082971571468290e-07,1.888914445807798e-09
2.990941716582028e-01,1.235157039566715e-05,3.198043657528879e-07,1.959279176776265e-09
3.046659940642663e-01,1.281376472581844e-05,3.317393890261538e-07,2.032251946313665e-09
3.103416138955776e-01,1.329320968958121e-05,3.441180351612832e-07,2.107928664624559e-09
3.161229647933589e-01,1.379054658487543e-05,3.569566908910072e-07,2.186408725347512e-09
3.220120164206161e-01,1.430644040361474e-05,3.702723423351346e-07,2.267795129531313e-09
3.280107751331879e-01,1.484158069869169e-05,3.840825965819454e-07,2.352194613873743e-09
3.341212846632964e-01,1.539668248219780e-05,3.984057040265780e-07,2.439717783360396e-09
3.403456268158315e-01,1.597248715597541e-05,4.132605814917687e-07,2.530479248445038e-09
3.466859221776056e-01,1.656976347563471e-05,4.286668361570804e-07,2.624597766916801e-09
3.531443308398228e-01,1.718930854920737e-05,4.446447903235502e-07,2.722196390603664e-09
3.597230531340044e-01,1.783194887164739e-05,4.612155070415084e-07,2.823402617065650e-09
3.664243303816270e-01,1.849854139642996e-05,4.784008166301458e-07,2.928348546435398e-09
3.732504456577225e-01,1.918997464554071e-05,4.962233441182654e-07,3.037171043567945e-09
3.802037245687055e-01,1.990716985919031e-05,5.147065376365308e-07,3.150011905665872e-09
3.872865360446898e-01,2.065108218663388e-05,5.338746977924148e-07,3.267018035550239e-09
3.945012931465652e-01,2.142270191951905e-05,5.537530080599550e-07,3.388341620752234e-09
4.018504538881091e-01,2.222305576923444e-05,5.743675662173766e-07,3.514140318604803e-09
4.093365220734140e-01,2.305320818977721e-05,5.957454168665724e-07,3.644577447518047e-09
4.169620481499139e-01,2.391426274770843e-05,6.179145850694114e-07,3.779822184626766e-09
4.247296300773036e-01,2.480736354081548e-05,6.409041111368364e-07,3.920049770002983e-09
4.326419142126435e-01,2.573369666715335e-05,6.647440866077231e-07,4.065441717630958e-09
4.407015962119537e-01,2.669449174619002e-05,6.894656914554847e-07,4.216186033346808e-09
4.489114219486044e-01,2.769102349383669e-05,7.151012325614746e-07,4.372477439949435e-09
4.572741884488138e-01,2.872461335320018e-05,7.416841834952753e-07,4.534517609694098e-09
4.657927448445742e-01,2.979663118295352e-05,7.692492256430704e-07,4.702515404384704e-09
4.744699933443300e-01,3.090849700528007e-05,7.978322907263539e-07,4.876687123285305e-09
4.833088902217385e-01,3.206168281540879e-05,8.274706047543883e-07,5.057256759076064e-09
4.923124468228500e-01,3.325771445482072e-05,8.582027334548996e-07,5.244456262083393e-09
5.014837305920511e-01,3.449817355027212e-05,8.900686292286735e-07,5.438525813018528e-09
5.108258661171197e-01,3.578469952084575e-05,9.231096796748467e-07,5.639714104463102e-09
5.203420361937495e-01,3.711899165531044e-05,9.573687577348587e-07,5.848278631344887e-09
5.300354829099038e-01,3.850281126213826e-05,9.928902735041922e-07,6.064485990650758e-09
5.399095087503706e-01,3.993798389460111e-05,1.029720227762223e-06,6.288612190628411e-09
5.499674777218954e-01,4.142640165344120e-05,1.067906267271668e-06,6.520942969732144e-09
5.602128164992719e-01,4.297002556968522e-05,1.107497741900331e-06,6.761774125571854e-09
5.706490155927858e-01,4.457088807024918e-05,1.148545763619023e-06,7.011411854128138e-09
5.812796305374044e-01,4.623109552905860e-05,1.191103267430721e-06,7.270173099499769e-09
5.921082831041212e-01,4.795283090649056e-05,1.235225074287246e-06,7.538385914452917e-09
6.031386625338666e-01,4.973835648002486e-05,1.280967956050901e-06,7.816389832044592e-09
6.143745267944039e-01,5.159001666907623e-05,1.328390702559679e-06,8.104536248595283e-09
6.258197038606413e-01,5.351024095706521e-05,1.377554190855852e-06,8.403188818288027e-09
6.374780930187944e-01,5.550154691387232e-05,1.428521456638857e-06,8.712723859673204e-09
6.493536661948436e-01,5.756654332190971e-05,1.481357768004556e-06,9.033530774359740e-09
6.614504693077394e-01,5.970793340913476e-05,1.536130701534024e-06,9.366012478174426e-09
6.737726236478173e-01,6.192851819242339e-05,1.592910220796145e-06,9.710585845071732e-09
6.863243272808900e-01,6.423119993481385e-05,1.651768757329254e-06,1.006768216407638e-08
6.991098564784974e-01,6.661898572022870e-05,1.712781294168181e-06,1.043774760954039e-08
7.121335671748004e-01,6.909499114937866e-05,1.776025451983891e-06,1.082124372499493e-08
7.253998964506142e-01,7.166244416065145e-05,1.841581577903936e-06,1.121864792087558e-08
7.389133640450900e-01,7.432468897988900e-05,1.909532837082696e-06,1.163045398639638e-08
7.526785738955553e-01,7.708519020305679e-05,1.979965307091223e-06,1.205717261584496e-08
7.667002157060409e-01,7.994753701591284e-05,2.052968075197195e-06,1.249933194956586e-08
7.809830665450286e-01,8.291544755488690e-05,2.128633338606118e-06,1.295747812989410e-08
7.955319924729620e-01,8.599277341348550e-05,2.207056507735453e-06,1.343217587229394e-08
8.103519502000778e-01,8.918350429864397e-05,2.288336312593783e-06,1.392400905195029e-08
8.254479887751180e-01,9.249177284155267e-05,2.372574912337443e-06,1.443358130605045e-08
8.408252513055067e-01,9.592185956759366e-05,2.459878008077283e-06,1.496151665198421e-08
8.564889767095639e-01,9.947819803012662e-05,2.550354959008209e-06,1.550846012167695e-08
8.724445015013688e-01,1.031653801129773e-04,2.644118901934179e-06,1.607507841225821e-08
8.886972616088691e-01,1.069881615065836e-04,2.741286874260975e-06,1.666206055325127e-08
9.052527942258612e-01,1.109514673628643e-04,2.841979940528710e-06,1.727011859045291e-08
9.221167396984710e-01,1.150603981339834e-04,2.946323322555373e-06,1.789998828665267e-08
9.392948434467768e-01,1.193202356002867e-04,3.054446533261902e-06,1.855242983931934e-08
9.567929579222322e-01,1.237364490927955e-04,3.166483514248181e-06,1.922822861535860e-08
9.746170446015512e-01,1.283147019157430e-04,3.282572777188044e-06,1.992819590301899e-08
9.927731760177396e-01,1.330608579747451e-04,3.402857549109820e-06,2.065316968099451e-08
1.011267537828962e+00,1.379809886162933e-04,3.527485921626960e-06,2.140401540473940e-08
1.030106430925946e+00,1.430813796843577e-04,3.656611004181198e-06,2.218162680997612e-08
1.049296273578656e+00,1.483685387999828e-04,3.790391081358043e-06,2.298692673333795e-08
1.068843603622940e+00,1.538492028698480e-04,3.928989774331518e-06,2.382086795004616e-08
1.088755080687928e+00,1.595303458298547e-04,4.072576206491715e-06,2.468443402847510e-08
1.109037488464917e+00,1.654191866298816e-04,4.221325173304913e-06,2.557864020140817e-08
1.129697737018523e+00,1.715231974659307e-04,4.375417316451844e-06,2.650453425373291e-08
1.150742865140887e+00,1.778501122659555e-04,4.535039302284841e-06,2.746319742626446e-08
1.172180042749740e+00,1.844079354357292e-04,4.700384004639368e-06,2.845574533532088e-08
1.194016573331143e+00,1.912049508711695e-04,4.871650692029498e-06,2.948332890760492e-08
1.216259896427724e+00,1.982497312435845e-04,5.049045219250380e-06,3.054713532987036e-08
1.238917590173280e+00,2.055511475643465e-04,5.232780223403599e-06,3.164838901276880e-08
1.261997373874590e+00,2.131183790355310e-04,5.423075324353240e-06,3.278835256818467e-08
1.285507110641321e+00,2.209609231930762e-04,5.620157329611925e-06,3.396832779926945e-08
1.309454810064934e+00,2.290886063490304e-04,5.824260443646433e-06,3.518965670228397e-08
1.333848630947493e+00,2.375115943394429e-04,6.035626481582026e-06,3.645372247924451e-08
1.358696884081304e+00,2.462404035844373e-04,6.254505087273218e-06,3.776195056024983e-08
1.384008035080342e+00,2.552859124669726e-04,6.481153955696285e-06,3.911580963423600e-08
1.409790707264422e+00,2.646593730367357e-04,6.715839059605142e-06,4.051681268676689e-08
1.436053684597103e+00,2.743724230455443e-04,6.958834880377507e-06,4.196651804331867e-08
1.462805914678310e+00,2.844370983205430e-04,7.210424642962258e-06,4.346653041635597e-08
1.490056511792723e+00,2.948658454813557e-04,7.470900554821424e-06,4.501850195432398e-08
1.517814760014943e+00,3.056715350072256e-04,7.740564048741439e-06,4.662413329049643e-08
1.546090116372504e+00,3.168674746599983e-04,8.019726029367904e-06,4.828517458941941e-08
1.574892214067815e+00,3.284674232686146e-04,8.308707123295949e-06,5.000342658847822e-08
1.604230865760119e+00,3.404856048805495e-04,8.607837932524598e-06,5.178074163188621e-08
1.634116066908591e+00,3.529367232853786e-04,8.917459291057634e-06,5.361902469414823e-08
1.664557999177718e+00,3.658359769153487e-04,9.237922524405789e-06,5.552023438979077e-08
1.695567033906116e+00,3.791990741275045e-04,9.569589711715247e-06,5.748638396586862e-08
1.727153735639967e+00,3.930422488715370e-04,9.912833950214989e-06,5.951954227345818e-08
1.759328865732280e+00,4.073822767471038e-04,1.026803962164121e-05,6.162183471402543e-08
1.792103386009204e+00,4.222364914538931e-04,1.063560266025924e-05,6.379544415621396e-08
1.825488462504641e+00,4.376228016371828e-04,1.101593082206384e-05,6.604261181822957e-08
1.859495469264429e+00,4.535597081310688e-04,1.140944395469530e-05,6.836563811060662e-08
1.894135992221397e+00,4.700663216008840e-04,1.181657426756267e-05,7.076688343372146e-08
1.929421833142601e+00,4.871623805856351e-04,1.223776660161576e-05,7.324876892396956e-08
1.965365013650102e+00,5.048682699405000e-04,1.267347869815451e-05,7.581377714204718e-08
2.001977779316639e+00,5.232050396785764e-04,1.312418146600696e-05,7.846445269626454e-08
2.039272603837611e+00,5.421944242101440e-04,1.359035924634618e-05,8.120340279327640e-08
2.077262193280760e+00,5.618588619766746e-04,1.407251007435082e-05,8.403329770803249e-08
2.115959490415044e+00,5.822215154757286e-04,1.457114593684404e-05,8.695687116413313e-08
2.155377679120140e+00,6.033062916716421e-04,1.508679302497023e-05,8.997692061511169e-08
2.195530188878086e+00,6.251378627856113e-04,1.561999198088889e-05,9.309630741646454e-08
2.236430699348613e+00,6.477416874573417e-04,1.617129813737898e-05,9.631795687749768e-08
2.278093145029698e+00,6.711440322688751e-04,1.674128174915554e-05,9.964485818125882e-08
2.320531720004946e+00,6.953719936195299e-04,1.733052821460166e-05,1.030800641599731e-07
2.363760882779406e+00,7.204535199390619e-04,1.793963828651486e-05,1.066266909124937e-07
2.407795361205478e+00,7.464174342241914e-04,1.856922827035431e-05,1.102879172493114e-07
