# energy,pi_pi_pi0,mu_mu,pi_pi
5.041833038782722e-02,1.586826595050617e-07,5.675242378257868e-10,1.140625298326747e-10
5.135757297277549e-02,1.646398349145870e-07,5.887989676617643e-10,1.183410981143741e-10
5.231431269867615e-02,1.708204556025843e-07,6.108699177909542e-10,1.227799496865666e-10
5.328887551959732e-02,1.772328915287894e-07,6.337668128114482e-10,1.273850771414400e-10
5.428159346180227e-02,1.838858255434303e-07,6.575204827445950e-10,1.321626964377568e-10
5.529280473686828e-02,1.907882650474673e-07,6.821629039001369e-10,1.371192551875448e-10
5.632285385691281e-02,1.979495540852822e-07,7.077272412379793e-10,1.422614412479753e-10
5.737209175196620e-02,2.053793858857314e-07,7.342478922805871e-10,1.475961916295370e-10
5.844087588953090e-02,2.130878158680664e-07,7.617605326319199e-10,1.531307017320158e-10
5.952957039636796e-02,2.210852751298122e-07,7.903021631607511e-10,1.588724349201952e-10
6.063854618255234e-02,2.293825844343275e-07,8.199111589082799e-10,1.648291324516220e-10
6.176818106783914e-02,2.379909687164054e-07,8.506273197820192e-10,1.710088237692188e-10
6.291885991038398e-02,2.469220721249438e-07,8.824919231001250e-10,1.774198371719808e-10
6.409097473786139e-02,2.561879736224016e-07,9.155477780525760e-10,1.840708108774631e-10
6.528492488102552e-02,2.658012031614732e-07,9.498392821479033e-10,1.909707044902521e-10
6.650111710975931e-02,2.757747584601518e-07,9.854124797166101e-10,1.981288108911195e-10
6.773996577165783e-02,2.861221223971196e-07,1.022315122544835e-09,2.055547685620723e-10
6.900189293319352e-02,2.968572810501934e-07,1.060596732714423e-09,2.132585743630563e-10
7.028732852351095e-02,3.079947424013740e-07,1.100308667728152e-09,2.212505967766224e-10
7.159671048090059e-02,3.195495557329044e-07,1.141504188001632e-09,2.295415896374421e-10
7.293048490200101e-02,3.315373317396104e-07,1.184238526806171e-09,2.381427063641518e-10
7.428910619378071e-02,3.439742633837172e-07,1.228568962749836e-09,2.470655147116214e-10
7.567303722835121e-02,3.568771475192732e-07,1.274554894886893e-09,2.563220120623773e-10
7.708274950066404e-02,3.702634073142874e-07,1.322257920548960e-09,2.659246412765643e-10
7.851872328914561e-02,3.841511154996997e-07,1.371741915994345e-09,2.758863071205140e-10
7.998144781932441e-02,3.985590184753448e-07,1.423073119975379e-09,2.862203932946841e-10
8.147142143050659e-02,4.135065613041538e-07,1.476320220326925e-09,2.969407800824585e-10
8.298915174555634e-02,4.290139136269527e-07,1.531554443682768e-09,3.080618626420476e-10
8.453515584383919e-02,4.451019965313827e-07,1.588849648430209e-09,3.195985699645011e-10
8.610996043738721e-02,4.617925104096554e-07,1.648282421016919e-09,3.315663845216436e-10
8.771410205034573e-02,4.791079638411025e-07,1.709932175727947e-09,3.439813626285664e-10
8.934812720176315e-02,4.970717035367589e-07,1.773881258054754e-09,3.568601555461670e-10
9.101259259178590e-02,5.157079453845453e-07,1.840215051782256e-09,3.702200313500986e-10
9.270806529132200e-02,5.350418066349871e-07,1.909022089924018e-09,3.840788975934082e-10
9.443512293523788e-02,5.550993392688292e-07,1.980394169640186e-09,3.984553247910747e-10
9.619435391915430e-02,5.759075645893708e-07,2.054426471277106e-09,4.133685707556287e-10
9.798635759990824e-02,5.974945090838630e-07,2.131217681672283e-09,4.288386058140310e-10
9.981174449974940e-02,6.198892415998852e-07,2.210870121873069e-09,4.448861389370266e-10
1.016711365143405e-01,6.431219118842350e-07,2.293489879422312e-09,4.615326448132416e-10
1.035651671246324e-01,6.672237905335499e-07,2.379186945369327e-09,4.788003919014024e-10
1.054944816126866e-01,6.922273104076104e-07,2.468075356169629e-09,4.967124714951752e-10
1.074597372815177e-01,7.181661095580727e-07,2.560273340642334e-09,5.152928278363035e-10
1.094616036790318e-01,7.450750757272291e-07,2.655903472159523e-09,5.345662893129189e-10
1.115007628261363e-01,7.729903924733202e-07,2.755092826247559e-09,5.545586007811422e-10
1.135779094490996e-01,8.019495869808902e-07,2.857973143786185e-09,5.752964570493756e-10
1.156937512162389e-01,8.319915796167416e-07,2.964680999997151e-09,5.968075375660065e-10
1.178490089790175e-01,8.631567352941528e-07,3.075357979420339e-09,6.191205423525977e-10
1.200444170176337e-01,8.954869167102036e-07,3.190150857081580e-09,6.422652292260495e-10
1.222807232911844e-01,9.290255395233310e-07,3.309211786062956e-09,6.662724523546555e-10
1.245586896924892e-01,9.638176295405490e-07,3.432698491692937e-09,6.911742021944652e-10
1.268790923076617e-01,9.999098819861995e-07,3.560774472580612e-09,7.170036468538971e-10
1.292427216805159e-01,1.037350722926574e-06,3.693609208725313e-09,7.437951749361248e-10
1.316503830818991e-01,1.076190372927330e-06,3.831378376940090e-09,7.715844399103820e-10
1.341028967840412e-01,1.116480913023276e-06,3.974264073834896e-09,8.004084060649979e-10
1.366010983400154e-01,1.158276353082846e-06,4.122455046613028e-09,8.303053960967093e-10
1.391458388684052e-01,1.201632702652407e-06,4.276146931941959e-09,8.613151403925427e-10
1.417379853432736e-01,1.246608044368477e-06,4.435542503167872e-09,8.934788280624029e-10
1.443784208895351e-01,1.293262610028947e-06,4.600851926151223e-09,9.268391597823592e-10
1.470680450838296e-01,1.341658859417503e-06,4.772293024009075e-09,9.614404025105522e-10
1.498077742610016e-01,1.391861561978663e-06,4.950091551058506e-09,9.973284461396137e-10
1.525985418262881e-01,1.443937881444171e-06,5.134481476264146e-09,1.034550862151541e-09
1.554412985733235e-01,1.497957463514883e-06,5.325705276501780e-09,1.073156964343023e-09
1.583370130080675e-01,1.553992526705851e-06,5.524014239959281e-09,1.113197871691407e-09
1.612866716787678e-01,1.612117956465877e-06,5.729668780005199e-09,1.154726573433623e-09
1.642912795120697e-01,1.672411402686652e-06,5.942938759865161e-09,1.197797996432723e-09
1.673518601553873e-01,1.734953380720391e-06,6.164103828455811e-09,1.242469074908950e-09
1.704694563256523e-01,1.799827376028881e-06,6.393453767735922e-09,1.288798822614633e-09
1.736451301645600e-01,1.867119952590997e-06,6.631288851944579e-09,1.336848407534684e-09
1.768799636004331e-01,1.936920865199925e-06,6.877920219106428e-09,1.386681229196903e-09
1.801750587168263e-01,2.009323175785746e-06,7.133670255194693e-09,1.438362998678902e-09
1.835315381279981e-01,2.084423373903491e-06,7.398872991353145e-09,1.491961821401068e-09
1.869505453613770e-01,2.162321501531418e-06,7.673874514589105e-09,1.547548282797642e-09
1.904332452471531e-01,2.243121282329040e-06,7.959033392360626e-09,1.605195536960769e-09
1.939808243151265e-01,2.326930255509319e-06,8.254721111492036e-09,1.664979398355132e-09
1.975944911989494e-01,2.413859914484513e-06,8.561322531863406e-09,1.726978436703699e-09
2.012754770478987e-01,2.504025850450351e-06,8.879236355330972e-09,1.791274075148004e-09
2.050250359463188e-01,2.597547901078540e-06,9.208875610347002e-09,1.857950691789373e-09
2.088444453408795e-01,2.694550304493158e-06,9.550668152759445e-09,1.927095724720583e-09
2.127350064757919e-01,2.795161858712089e-06,9.905057183283337e-09,1.998799780660522e-09
2.166980448361330e-01,2.899516086740506e-06,1.027250178214791e-08,2.073156747307602e-09
2.207349105994282e-01,3.007751407509377e-06,1.065347746143531e-08,2.150263909530922e-09
2.248469790956469e-01,3.120011312858104e-06,1.104847673563863e-08,2.230222069521410e-09
2.290356512757671e-01,3.236444550766734e-06,1.145800971097940e-08,2.313135671028606e-09
2.333023541890691e-01,3.357205315049627e-06,1.188260469403623e-08,2.399112927812035e-09
2.376485414693198e-01,3.482453441729173e-06,1.232280882024855e-08,2.488265956439664e-09
2.420756938300160e-01,3.612354612314913e-06,1.277918870287159e-08,2.580710913569390e-09
2.465853195688513e-01,3.747080564220477e-06,1.325233110297003e-08,2.676568137853035e-09
2.511789550815826e-01,3.886809308557919e-06,1.374284362105019e-08,2.775962296605953e-09
2.558581653854682e-01,4.031725355556391e-06,1.425135541094183e-08,2.879022537388980e-09
2.606245446524578e-01,4.182019947859655e-06,1.477851791655226e-08,2.985882644653081e-09
2.654797167523145e-01,4.337891301964676e-06,1.532500563212673e-08,3.096681201600814e-09
2.704253358058558e-01,4.499544858071444e-06,1.589151688665975e-08,3.211561757422396e-09
2.754630867484995e-01,4.667193538622292e-06,1.647877465311315e-08,3.330673000067960e-09
2.805946859043087e-01,4.841058015817294e-06,1.708752738310633e-08,3.454168934721311e-09
2.858218815707313e-01,5.021366988400782e-06,1.771854986775455e-08,3.582209068144320e-09
2.911464546142307e-01,5.208357468022713e-06,1.837264412533991e-08,3.714958599064800e-09
2.965702190770145e-01,5.402275075487474e-06,1.905064031650899e-08,3.852588614784584e-09
3.020950227950651e-01,5.603374347211839e-06,1.975339768769877e-08,3.995276294188197e-09
3.077227480276830e-01,5.811919052222816e-06,2.048180554350011e-08,4.143205117336267e-09
3.134553120987591e-01,6.028182520035900e-06,2.123678424867472e-08,4.296565081831637e-09
3.192946680499924e-01,6.252447979763454e-06,2.201928626054702e-08,4.455552926149587e-09
3.252428053062764e-01,6.485008910813053e-06,2.283029719249742e-08,4.620372360127451e-09
3.313017503534819e-01,6.726169405545420e-06,2.367083690928676e-08,4.791234302812201e-09
3.374735674288648e-01,6.976244544271722e-06,2.454196065494420e-08,4.968357127868194e-09
3.437603592243370e-01,7.235560782980363e-06,2.544476021395228e-08,5.151966916750560e-09
3.501642676028375e-01,7.504456354193847e-06,2.638036510646195e-08,5.342297719852987e-09
3.566874743280489e-01,7.783281681366830e-06,2.734994381826858e-08,5.539591825841711e-09
3.633322018077084e-01,8.072399807247372e-06,2.835470506627656e-08,5.744100039390543e-09
3.701007138507650e-01,8.372186836634155e-06,2.939589910017376e-08,5.956081967534495e-09
3.769953164386427e-01,8.683032393973574e-06,3.047481904103020e-08,6.175806314862185e-09
3.840183585108711e-01,9.005340096251706e-06,3.159280225752419e-08,6.403551187769509e-09
3.911722327653510e-01,9.339528041647315e-06,3.275123178048791e-08,6.639604407999239e-09
3.984593764735294e-01,9.686029314423591e-06,3.395153775644809e-08,6.884263835693027e-09
4.058822723107590e-01,1.004529250654753e-05,3.519519894082012e-08,7.137837702183800e-09
4.134434492021278e-01,1.041778225653737e-05,3.648374423139213e-08,7.400644952757755e-09
4.211454831840442e-01,1.080397980605010e-05,3.781875424271113e-08,7.673015599615920e-09
4.289909982818739e-01,1.120438357473240e-05,3.920186292195514e-08,7.955291085265737e-09
4.369826674039257e-01,1.161950975387005e-05,4.063475920684174e-08,8.247824656572976e-09
4.451232132520910e-01,1.204989291938219e-05,4.211918872608877e-08,8.550981749703775e-09
4.534154092494482e-01,1.249608666471822e-05,4.365695554289918e-08,8.865140386185527e-09
4.618620804851472e-01,1.295866425422663e-05,4.524992394189778e-08,9.190691580313605e-09
4.704661046768960e-01,1.343821929757594e-05,4.690002025989408e-08,9.528039758128541e-09
4.792304131513780e-01,1.393536644581931e-05,4.860923476078950e-08,9.877603188185303e-09
4.881579918429326e-01,1.445074210970487e-05,5.037962355488219e-08,1.023981442433245e-08
4.972518823108408e-01,1.498500520084478e-05,5.221331056275217e-08,1.061512076071425e-08
5.065151827755620e-01,1.553883789636592e-05,5.411248952383315e-08,1.100398469920331e-08
5.159510491742740e-01,1.611294642767554e-05,5.607942604968994e-08,1.140688442946483e-08
5.255626962360779e-01,1.670806189398431e-05,5.811645972192814e-08,1.182431432184569e-08
5.353533985772315e-01,1.732494110123882e-05,6.022600623455910e-08,1.225678543327320e-08
5.453264918167871e-01,1.796436742712365e-05,6.241055958053165e-08,1.270482602633798e-08
5.554853737130117e-01,1.862715171280171e-05,6.467269428201896e-08,1.316898210172440e-08
5.658335053209780e-01,1.931413318206859e-05,6.701506766391561e-08,1.364981794413893e-08
5.763744121717198e-01,2.002618038860323e-05,6.944042216985537e-08,1.414791668187271e-08
5.871116854733543e-01,2.076419219200357e-05,7.195158771990137e-08,1.466388086011834e-08
5.980489833345795e-01,2.152909876329993e-05,7.455148410888972e-08,1.519833302814311e-08
6.091900320109647e-01,2.232186262064370e-05,7.724312344422314e-08,1.575191634040152e-08
6.205386271744578e-01,2.314347969587081e-05,8.002961262170726e-08,1.632529517164717e-08
6.320986352065426e-01,2.399498043264182e-05,8.291415583780879e-08,1.691915574608112e-08
6.438739945154855e-01,2.487743091686019e-05,8.590005713647684e-08,1.753420678054630e-08
6.558687168781225e-01,2.579193404006897e-05,8.899072298841658e-08,1.817118014174917e-08
6.680868888066408e-01,2.673963069652369e-05,9.218966490043020e-08,1.883083151745733e-08
6.805326729408231e-01,2.772170101463427e-05,9.550050205214571e-08,1.951394110158770e-08
6.932103094662287e-01,2.873936562346206e-05,9.892696395713629e-08,2.022131429306093e-08
7.061241175587920e-01,2.979388695494969e-05,1.024728931450900e-07,2.095378240825699e-08
7.192784968563333e-01,3.088657058255024e-05,1.061422478613233e-07,2.171220340686152e-08
7.326779289574835e-01,3.201876659690900e-05,1.099391047795351e-07,2.249746263084342e-08
7.463269789485303e-01,3.319187101923426e-05,1.138676617232733e-07,2.331047355625103e-08
7.602302969587096e-01,3.440732725297538e-05,1.179322403911293e-07,2.415217855745679e-08
7.743926197444693e-01,3.566662757440333e-05,1.221372890801867e-07,2.502354968341729e-08
7.888187723032470e-01,3.697131466266344e-05,1.264873854017240e-07,2.592558944544878e-08
8.035136695173106e-01,3.832298316984085e-05,1.309872389826076e-07,2.685933161594448e-08
8.184823178282217e-01,3.972328133154547e-05,1.356416941452097e-07,2.782584203738170e-08
8.337298169424929e-01,4.117391261848548e-05,1.404557325580347e-07,2.882621944088130e-08
8.492613615690198e-01,4.267663742945634e-05,1.454344758485481e-07,2.986159627349061e-08
8.650822431888791e-01,4.423327482612441e-05,1.505831881689609e-07,3.093313953326202e-08
8.811978518580971e-01,4.584570430993198e-05,1.559072787049251e-07,3.204205161109268e-08
8.976136780440012e-01,4.751586764139126e-05,1.614123041162522e-07,3.318957113817701e-08
9.143353144957810e-01,4.924577070197088e-05,1.671039708978551e-07,3.437697383779994e-08
9.313684581498962e-01,5.103748539870562e-05,1.729881376481474e-07,3.560557338006689e-08
9.487189120709802e-01,5.289315161158315e-05,1.790708172310949e-07,3.687672223802462e-08
9.663925874289012e-01,5.481497918367308e-05,1.853581788170098e-07,3.819181254347413e-08
9.843955055126525e-01,5.680524995387035e-05,1.918565497859929e-07,3.955227694061375e-08
1.002733799781762e+00,5.886631983202043e-05,1.985724174766727e-07,4.095958943547495e-08
1.021413717955915e+00,6.100062091608146e-05,2.055124307615363e-07,4.241526623892526e-08
1.040441624143506e+00,6.321066365085377e-05,2.126834014287181e-07,4.392086660081169e-08
1.059824001009842e+00,6.549903902767449e-05,2.200923053485723e-07,4.547799363260220e-08
1.079567451985740e+00,6.786842082432766e-05,2.277462834017285e-07,4.708829511565151e-08
1.099678703517264e+00,7.032156788426224e-05,2.356526421435781e-07,4.875346429197156e-08
1.120164607357378e+00,7.286132643403886e-05,2.438188541782937e-07,5.047524063412163e-08
1.141032142900283e+00,7.549063243773888e-05,2.522525582134899e-07,5.225541059055067e-08
1.162288419559247e+00,7.821251398686910e-05,2.609615587645409e-07,5.409580830242405e-08
1.183940679188729e+00,8.103009372407684e-05,2.699538254753113e-07,5.599831628764157e-08
1.205996298551625e+00,8.394659129875452e-05,2.792374920196691e-07,5.796486608741120e-08
1.228462791832472e+00,8.696532585236041e-05,2.888208545456077e-07,5.999743887037394e-08
1.251347813197481e+00,9.008971853100551e-05,2.987123696210788e-07,6.209806598888189e-08
1.274659159402248e+00,9.332329502256577e-05,3.089206516377678e-07,6.426882948161358e-08
1.298404772448054e+00,9.666968811525589e-05,3.194544696259589e-07,6.651186251626114e-08
1.322592742287645e+00,1.001326402742643e-04,3.303227434303733e-07,6.882934976554874e-08
1.347231309581416e+00,1.037160062326764e-04,3.415345391933895e-07,7.122352770933097e-08
1.372328868504946e+00,1.074237555925227e-04,3.530990640883496e-07,7.369668485497774e-08
1.397893969608827e+00,1.112599754313597e-04,3.650256602417305e-07,7.625116186767428e-08
1.423935322731778e+00,1.152288729093383e-04,3.773237977787655e-07,7.888935160164700e-08
1.450461799968014e+00,1.193347778712264e-04,3.900030669226666e-07,8.161369902267065e-08
1.477482438689910e+00,1.235821454373251e-04,4.030731690728616e-07,8.442670101151109e-08
1.505006444626962e+00,1.279755585766577e-04,4.165439067826375e-07,8.733090603721342e-08
1.533043195002109e+00,1.325197306552097e-04,4.304251725512440e-07,9.032891368835186e-08
1.561602241726488e+00,1.372195079513507e-04,4.447269363398369e-07,9.342337404951205e-08
1.590693314653693e+00,1.420798721298801e-04,4.594592317146026e-07,9.661698690937867e-08
1.620326324894666e+00,1.471059426653985e-04,4.746321405140154e-07,9.991250078584178e-08
1.650511368194339e+00,1.523029792049198e-04,4.902557759303643e-07,1.033127117525205e-07
1.681258728371178e+00,1.576763838587871e-04,5.063402638884584e-07,1.068204620500157e-07
1.712578880820800e+00,1.632317034080594e-04,5.228957225967586e-07,1.104386384640529e-07
1.744482496084868e+00,1.689746314155667e-04,5.399322401380166e-07,1.141701704514516e-07
1.776980443486461e+00,1.749110102267986e-04,5.574598499578692e-07,1.180180279935516e-07
1.810083794833171e+00,1.810468328456924e-04,5.754885041006282e-07,1.219852191553434e-07
1.843803828189185e+00,1.873882446692118e-04,5.940280440317772e-07,1.260747873270763e-07
1.878152031717639e+00,1.939415450633463e-04,6.130881688763202e-07,1.302898081235506e-07
1.913140107594547e+00,2.007131887618292e-04,6.326784008911504e-07,1.346333859146385e-07
1.948779975995646e+00,2.077097870674374e-04,6.528080479779449e-07,1.391086499588080e-07
1.985083779157511e+00,2.149381088342157e-04,6.734861630307231e-07,1.437187501095465e-07
2.022063885514324e+00,2.224050812073418e-04,6.947214998990831e-07,1.484668520625848e-07
2.059732893911705e+00,2.301177900956164e-04,7.165224657341941e-07,1.533561321097007e-07
2.098103637899049e+00,2.380834803497182e-04,7.388970694698690e-07,1.583897713626308e-07
2.137189190101813e+00,2.463095556173917e-04,7.618528661753393e-07,1.635709494082278e-07
2.177002866675272e+00,2.548035778446495e-04,7.853968969997674e-07,1.689028373534587e-07
2.217558231841222e+00,2.635732663898260e-04,8.095356244108689e-07,1.743885902161444e-07
2.258869102509219e+00,2.726264967149571e-04,8.342748624113382e-07,1.800313386144802e-07
2.300949552983889e+00,2.819712986164178e-04,8.596197013969412e-07,1.858341797053330e-07
2.343813919759944e+00,2.916158539540631e-04,8.855744272990941e-07,1.918001673180901e-07
2.387476806406515e+00,3.015684938352506e-04,9.121424346324878e-07,1.979323012274075e-07
2.431953088542480e+00,3.118376952070679e-04,9.393261330446424e-07,2.042335155045728e-07
2.477257918904475e+00,3.224320768068507e-04,9.671268469392446e-07,2.107066658833457e-07
2.523406732509322e+00,3.333603944176152e-04,9.955447077185435e-07,2.173545160720400e-07
2.570415251912617e+00,3.446315353713668e-04,1.024578538161924e-06,2.241797229392808e-07
2.618299492565293e+00,3.562545122393352e-04,1.054225728427921e-06,2.311848204962569e-07
2.667075768269962e+00,3.682384556440368e-04,1.084482103135322e-06,2.383722025934094e-07
2.716760696738906e+00,3.805926061236517e-04,1.115341778945432e-06,2.457441042443126e-07
2.767371205255606e+00,3.933263049745146e-04,1.146797012032110e-06,2.533025814840114e-07
2.818924536441740e+00,4.064489839925217e-04,1.178838034788449e-06,2.610494896632469e-07
2.871438254131623e+00,4.199701540289748e-04,1.211452881079135e-06,2.689864600738266e-07
2.924930249356064e+00,4.338993922707318e-04,1.244627199305197e-06,2.771148747938347e-07
2.979418746437710e+00,4.482463281485722e-04,1.278344052503094e-06,2.854358396344375e-07
3.034922309199937e+00,4.630206277713192e-04,1.312583704652578e-06,2.939501550626630e-07
3.091459847291407e+00,4.782319767765143e-04,1.347323392317536e-06,3.026582849667273e-07
3.149050622628442e+00,4.938900614812719e-04,1.382537080690700e-06,3.115603231221971e-07
3.207714255957415e+00,5.100045482093349e-04,1.418195203056702e-06,3.206559572085023e-07
