# energy,pi_pi_eta,rho0_a,pi0_pi0_eta,omega_a,a_a,pi_rho
9.577800000000000e-02,2.390399031981931e-01,1.125286043873674e-01,2.487226139193241e-02,1.024940846695075e-02,0.000000000000000e+00,3.333108378877035e-04
9.756224742765568e-02,2.346568368496867e-01,1.104661897542083e-01,2.441617413128496e-02,1.006123608748175e-02,0.000000000000000e+00,3.272012573423401e-04
9.937973358323526e-02,2.303537718507394e-01,1.084414937751443e-01,2.396840007385763e-02,9.877419285707217e-03,0.000000000000000e+00,3.212034121405404e-04
1.012310776706770e-01,2.261294448423776e-01,1.064538266512115e-01,2.352882845175435e-02,9.695999193820059e-03,0.000000000000000e+00,3.153152588609690e-04
1.031169104290632e-01,2.219822674476029e-01,1.045025111988932e-01,2.309718217731678e-02,9.517963358200725e-03,0.000000000000000e+00,3.095347914534954e-04
1.050378743475086e-01,2.179109527126973e-01,1.025868826194078e-01,2.267346027342514e-02,9.344048477509005e-03,0.000000000000000e+00,3.038600405557474e-04
1.069946238840510e-01,2.139142981508649e-01,1.007062882722168e-01,2.225759719231311e-02,9.172401198659788e-03,0.000000000000000e+00,2.982890728221628e-04
1.089878256886210e-01,2.099906036653289e-01,9.886008745267488e-02,2.184932117958647e-02,9.003955873979688e-03,0.000000000000000e+00,2.928199902653129e-04
1.110181588301640e-01,2.061387241982796e-01,9.704765117374578e-02,2.144847797794890e-02,8.839409523958071e-03,0.000000000000000e+00,2.874509296092722e-04
1.130863150279943e-01,2.023571194629792e-01,9.526836195171161e-02,2.105484914664339e-02,8.677008633153332e-03,0.000000000000000e+00,2.821800616548129e-04
1.151929988874585e-01,1.986447934899582e-01,9.352161359579970e-02,2.066850698846255e-02,8.517637218895823e-03,0.000000000000000e+00,2.770055906562109e-04
1.173389281399893e-01,1.950004641121473e-01,9.180681100165820e-02,2.028929480454131e-02,8.361954749342161e-03,0.000000000000000e+00,2.719257537094470e-04
1.195248338876312e-01,1.914226974102524e-01,9.012336994860770e-02,1.991699242565633e-02,8.208302167628946e-03,0.000000000000000e+00,2.669388201515989e-04
1.217514608521218e-01,1.879103548830657e-01,8.847071690060158e-02,1.955149243681903e-02,8.057515876036937e-03,0.000000000000000e+00,2.620430909712161e-04
1.240195676286124e-01,1.844620319422124e-01,8.684828881082604e-02,1.919254616980801e-02,7.910219821962959e-03,0.000000000000000e+00,2.572368982294789e-04
1.263299269441162e-01,1.810771260626370e-01,8.525553292987392e-02,1.884034807225826e-02,7.764844314795698e-03,0.000000000000000e+00,2.525186044919437e-04
1.286833259207703e-01,1.777540323364169e-01,8.369190661742665e-02,1.849451590560787e-02,7.622180697087544e-03,0.000000000000000e+00,2.478866022706803e-04
1.310805663440022e-01,1.744917040635423e-01,8.215687715738053e-02,1.815506202998020e-02,7.482819306479699e-03,0.000000000000000e+00,2.433393134766122e-04
1.335224649356927e-01,1.712889554432558e-01,8.064992157635371e-02,1.782178087897093e-02,7.345275012269410e-03,0.000000000000000e+00,2.388751888818727e-04
1.360098536324264e-01,1.681448905794607e-01,7.917052646551268e-02,1.749455056337073e-02,7.210296531821187e-03,0.000000000000000e+00,2.344927075919936e-04
1.385435798689262e-01,1.650581169742060e-01,7.771818780565742e-02,1.717332448872763e-02,7.078442399260330e-03,0.000000000000000e+00,2.301903765277470e-04
1.411245068667686e-01,1.620280373171757e-01,7.629241079550531e-02,1.685796707836293e-02,6.948307480666555e-03,0.000000000000000e+00,2.259667299164643e-04
1.437535139284759e-01,1.590532365059734e-01,7.489270968311522e-02,1.654842024304785e-02,6.820600162216435e-03,0.000000000000000e+00,2.218203287926560e-04
1.464314967370891e-01,1.561329435818937e-01,7.351860760039546e-02,1.624454514376068e-02,6.695848895515534e-03,0.000000000000000e+00,2.177497605077678e-04
1.491593676613193e-01,1.532660152077360e-01,7.216963640063749e-02,1.594612285165034e-02,6.572724240003182e-03,0.000000000000000e+00,2.137536382488991e-04
1.519380560663858e-01,1.504514197526878e-01,7.084533649902154e-02,1.565322695558698e-02,6.451896420685323e-03,0.000000000000000e+00,2.098306005663267e-04
1.547685086306433e-01,1.476884688118456e-01,6.954525671603867e-02,1.536571025413390e-02,6.333865418437118e-03,0.000000000000000e+00,2.059793109096673e-04
1.576516896681084e-01,1.449759741225950e-01,6.826895412377694e-02,1.508348725504098e-02,6.217373406553422e-03,0.000000000000000e+00,2.021984571725237e-04
1.605885814569940e-01,1.423130075588004e-01,6.701599389501846e-02,1.480633596968718e-02,6.103054510076680e-03,0.000000000000000e+00,1.984867512454592e-04
1.635801845743646e-01,1.396988718128068e-01,6.578594915509643e-02,1.453425459633494e-02,5.991381780122650e-03,0.000000000000000e+00,1.948429285771468e-04
1.666275182370246e-01,1.371324437723333e-01,6.457840083646141e-02,1.426714482363234e-02,5.881165144406984e-03,0.000000000000000e+00,1.912657477435453e-04
1.697316206487587e-01,1.346130521155879e-01,6.339293753590759e-02,1.400500841452748e-02,5.773004565319880e-03,0.000000000000000e+00,1.877539900249539e-04
1.728935493540394e-01,1.321396908433023e-01,6.222915537441001e-02,1.374764731241035e-02,5.667347611719887e-03,0.000000000000000e+00,1.843064589908022e-04
1.761143815983252e-01,1.297115276237636e-01,6.108665785952510e-02,1.349494869901575e-02,5.563068320716348e-03,0.000000000000000e+00,1.809219800920343e-04
1.793952146950696e-01,1.273277806517740e-01,5.996505575030836e-02,1.324689017331821e-02,5.460734338768137e-03,0.000000000000000e+00,1.775994002609467e-04
1.827371663995676e-01,1.249876871803545e-01,5.886396692470167e-02,1.300332375431763e-02,5.360769123493969e-03,0.000000000000000e+00,1.743375875183463e-04
1.861413752897670e-01,1.226903567712175e-01,5.778301624934661e-02,1.276425716503032e-02,5.262107361944940e-03,0.000000000000000e+00,1.711354305878913e-04
1.896090011541728e-01,1.204351100436377e-01,5.672183545177834e-02,1.252960291893078e-02,5.165286122375258e-03,0.000000000000000e+00,1.679918385174860e-04
1.931412253869788e-01,1.182209963420568e-01,5.568006299495705e-02,1.229918158030721e-02,5.070706054752128e-03,0.000000000000000e+00,1.649057403076008e-04
1.967392513905598e-01,1.160475093620068e-01,5.465734395409434e-02,1.207295517982329e-02,4.977359234314535e-03,0.000000000000000e+00,1.618760845463886e-04
2.004043049854617e-01,1.139135905156191e-01,5.365332989573175e-02,1.185089134322819e-02,4.885753797613968e-03,0.000000000000000e+00,1.589018390514749e-04
2.041376348280292e-01,1.118188234170490e-01,5.266767875903128e-02,1.163289426802266e-02,4.796268809122491e-03,0.000000000000000e+00,1.559819905182994e-04
2.079405128358141e-01,1.097623833318476e-01,5.170005473923679e-02,1.141892791534842e-02,4.707950638403238e-03,0.000000000000000e+00,1.531155441748886e-04
2.118142346209078e-01,1.077435068902710e-01,5.075012817326680e-02,1.120882917614473e-02,4.621280052522055e-03,0.000000000000000e+00,1.503015234429428e-04
2.157601199313467e-01,1.057617305438775e-01,4.981757542739959e-02,1.100260264021725e-02,4.536615699466650e-03,0.000000000000000e+00,1.475389696051211e-04
2.197795131007404e-01,1.038158376356893e-01,4.890207878701264e-02,1.080003860273349e-02,4.453055316822676e-03,0.000000000000000e+00,1.448269414784118e-04
2.238737835062762e-01,1.019057461940507e-01,4.800332634833836e-02,1.060128520125098e-02,4.371053770955944e-03,0.000000000000000e+00,1.421645150934759e-04
2.280443260352560e-01,1.000305940057705e-01,4.712101191219960e-02,1.040617910449874e-02,4.290950389946186e-03,0.000000000000000e+00,1.395507833798556e-04
2.322925615603231e-01,9.818970138252513e-02,4.625483487968868e-02,1.021461497221642e-02,4.211891517008653e-03,0.000000000000000e+00,1.369848558569401e-04
2.366199374235438e-01,9.638250546023773e-02,4.540450014975430e-02,1.002651257844877e-02,4.134307518234843e-03,0.000000000000000e+00,1.344658583305830e-04
2.410279279295056e-01,9.460831603277994e-02,4.456971801866148e-02,9.841861428217018e-03,4.058519441477431e-03,0.000000000000000e+00,1.319929325952683e-04
2.455180348476016e-01,9.286660842097043e-02,4.375020408129017e-02,9.660634408867899e-03,3.983719612213866e-03,0.000000000000000e+00,1.295652361417241e-04
2.500917879236724e-01,9.115681281319879e-02,4.294567913423932e-02,9.482698628974523e-03,3.910315212904724e-03,0.000000000000000e+00,1.271819418698831e-04
2.547507454011790e-01,8.947822733021168e-02,4.215586908070270e-02,9.308044077492181e-03,3.838609999896962e-03,0.000000000000000e+00,1.248422378070930e-04
2.594964945520844e-01,8.783033308570966e-02,4.138050483708476e-02,9.136535490327389e-03,3.767839807822379e-03,0.000000000000000e+00,1.225453268314807e-04
2.643306522176258e-01,8.621259146096495e-02,4.061932224132406e-02,8.968161896443142e-03,3.698389885132538e-03,0.000000000000000e+00,1.202904264003764e-04
2.692548653591599e-01,8.462443780779505e-02,3.987206196289376e-02,8.802896133617694e-03,3.630547622430777e-03,0.000000000000000e+00,1.180767682837034e-04
2.742708116192703e-01,8.306538974815790e-02,3.913846941444791e-02,8.640654265011528e-03,3.563590018040155e-03,0.000000000000000e+00,1.159035983022455e-04
2.793801998933282e-01,8.153480653746907e-02,3.841829466508359e-02,8.481389023157307e-03,3.497881569540378e-03,0.000000000000000e+00,1.137701760706996e-04
2.845847709116999e-01,8.003219427759986e-02,3.771129235518949e-02,8.325005349061885e-03,3.433694188914901e-03,0.000000000000000e+00,1.116757747454295e-04
2.898862978328006e-01,7.855705204758159e-02,3.701722161285182e-02,8.171479208878634e-03,3.370343820314202e-03,0.000000000000000e+00,1.096196807768319e-04
2.952865868471963e-01,7.710893557503093e-02,3.633584597178912e-02,8.020759916037174e-03,3.308175324426936e-03,0.000000000000000e+00,1.076011936662314e-04
3.007874777929598e-01,7.568734933764225e-02,3.566693329078779e-02,7.872857197540129e-03,3.247445965572254e-03,0.000000000000000e+00,1.056196257272228e-04
3.063908447824891e-01,7.429174909177379e-02,3.501025567461132e-02,7.727631612353967e-03,3.187508537961481e-03,0.000000000000000e+00,1.036743018513768e-04
3.120985968410036e-01,7.292158141886890e-02,3.436558939635584e-02,7.585033569667541e-03,3.128689327412696e-03,0.000000000000000e+00,1.017645592782325e-04
3.179126785569353e-01,7.157651770520167e-02,3.373271482122566e-02,7.445037693639019e-03,3.071231739171323e-03,0.000000000000000e+00,9.988974736949481e-05
3.238350707444350e-01,7.025604788927606e-02,3.311141633170307e-02,7.307612214270954e-03,3.014523429176076e-03,0.000000000000000e+00,9.804922738736317e-05
3.298677911182207e-01,6.895981680805402e-02,3.250148225408660e-02,7.172749963359487e-03,2.958873107037852e-03,0.000000000000000e+00,9.624237227691338e-05
3.360128949809987e-01,6.768727483603235e-02,3.190270478637282e-02,7.040339244900707e-03,2.904511068128366e-03,0.000000000000000e+00,9.446856645246048e-05
3.422724759236890e-01,6.643791900811293e-02,3.131487992745709e-02,6.910298442229717e-03,2.850857955327939e-03,0.000000000000000e+00,9.272720558782828e-05
3.486486665386964e-01,6.521143677801165e-02,3.073780740762922e-02,6.782649272617770e-03,2.798205847992181e-03,0.000000000000000e+00,9.101769641045484e-05
3.551436391464690e-01,6.400743263293467e-02,3.017129062034021e-02,6.657338667073319e-03,2.746772634134965e-03,0.000000000000000e+00,8.933945649926411e-05
3.617596065355914e-01,6.282547756607754e-02,2.961513655521702e-02,6.534370058380859e-03,2.696010165212862e-03,0.000000000000000e+00,8.769191408623377e-05
3.684988227166650e-01,6.166510432686631e-02,2.906915573230221e-02,6.413643493629582e-03,2.646194788394026e-03,0.000000000000000e+00,8.607450786159269e-05
3.753635836902325e-01,6.052591911310923e-02,2.853316213749661e-02,6.295070170565507e-03,2.597532656156290e-03,0.000000000000000e+00,8.448668678258125e-05
3.823562282290088e-01,5.940758846438014e-02,2.800697315918218e-02,6.178676552512906e-03,2.549505147432265e-03,0.000000000000000e+00,8.292790988570910e-05
3.894791386746826e-01,5.830972361194459e-02,2.749040952600448e-02,6.064419805569896e-03,2.502373721616670e-03,0.000000000000000e+00,8.139764610244672e-05
3.967347417495625e-01,5.723196376888277e-02,2.698329524579264e-02,5.952255529095161e-03,2.456333425686104e-03,0.000000000000000e+00,7.989537407828821e-05
4.041255093833438e-01,5.617392481583248e-02,2.648545754559650e-02,5.842190075267975e-03,2.410893576690853e-03,0.000000000000000e+00,7.842058199512280e-05
4.116539595552755e-01,5.513522255211005e-02,2.599672681282057e-02,5.734082190223009e-03,2.366301551204929e-03,0.000000000000000e+00,7.697276739685551e-05
4.193226571520177e-01,5.411550287792824e-02,2.551693653743423e-02,5.627958433451861e-03,2.322741889508802e-03,0.000000000000000e+00,7.555143701821706e-05
4.271342148414791e-01,5.311444377903605e-02,2.504592325523914e-02,5.523767215116672e-03,2.279750339599108e-03,0.000000000000000e+00,7.415610661670455e-05
4.350912939629333e-01,5.213175882885943e-02,2.458352649217395e-02,5.421524223265593e-03,2.237560951687372e-03,0.000000000000000e+00,7.278630080759615e-05
4.431966054337173e-01,5.116697826858174e-02,2.412958870963778e-02,5.321126443482553e-03,2.196348326388231e-03,0.000000000000000e+00,7.144155290198321e-05
4.514529106728205e-01,5.021984377068692e-02,2.368395525081342e-02,5.222561998899622e-03,2.155673221269189e-03,0.000000000000000e+00,7.012140474776453e-05
4.598630225416802e-01,4.929005254390458e-02,2.324647428797243e-02,5.125784958542418e-03,2.115757079125676e-03,0.000000000000000e+00,6.882540657354898e-05
4.684298063025017e-01,4.837727320462647e-02,2.281699677074373e-02,5.030804580063891e-03,2.076765093806816e-03,0.000000000000000e+00,6.755311683541288e-05
4.771561805944319e-01,4.748120189624610e-02,2.239537637532830e-02,4.937560953742503e-03,2.038281683475209e-03,0.000000000000000e+00,6.630410206646019e-05
4.860451184279179e-01,4.660151650577772e-02,2.198146945464266e-02,4.846018692251063e-03,2.000516363250974e-03,0.000000000000000e+00,6.507793672913426e-05
4.950996481975896e-01,4.573790674599009e-02,2.157513498937409e-02,4.756149034957911e-03,1.963625429625533e-03,0.000000000000000e+00,6.387420307023054e-05
5.043228547140107e-01,4.489011658015404e-02,2.117623453993092e-02,4.667907962566980e-03,1.927215687549929e-03,0.000000000000000e+00,6.269249097856107e-05
5.137178802546510e-01,4.405782593558494e-02,2.078463219927148e-02,4.581302475213874e-03,1.891485365160116e-03,0.000000000000000e+00,6.153239784522213e-05
5.232879256344365e-01,4.324077160512194e-02,2.040019454659580e-02,4.496281384901224e-03,1.856582338984236e-03,0.000000000000000e+00,6.039352842641766e-05
5.330362512962432e-01,4.243865820585938e-02,2.002279060188401e-02,4.412812331950735e-03,1.822134595475715e-03,0.000000000000000e+00,5.927549470879136e-05
5.429661784217057e-01,4.165121721252132e-02,1.965229178126613e-02,4.330869407882182e-03,1.788329685611090e-03,0.000000000000000e+00,5.817791577722189e-05
5.530810900627189e-01,4.087819308801260e-02,1.928857185320801e-02,4.250411810433213e-03,1.755307520471634e-03,0.000000000000000e+00,5.710041768503579e-05
5.633844322940184e-01,4.011932423711864e-02,1.893150689549851e-02,4.171446119144601e-03,1.722716125447571e-03,0.000000000000000e+00,5.604263332659428e-05
5.738797153872325e-01,3.937441664195351e-02,1.858097525302304e-02,4.093940450606504e-03,1.690732947953677e-03,0.000000000000000e+00,5.500420231221006e-05
5.845705150068052e-01,3.864296011511423e-02,1.823685749630951e-02,4.017805172933389e-03,1.659490363054169e-03,0.000000000000000e+00,5.398477084535213e-05
5.954604734281990e-01,3.792496514065528e-02,1.789903638083202e-02,3.943095824236287e-03,1.628655357723288e-03,0.000000000000000e+00,5.298399160209581e-05
6.065533007787899e-01,3.722012291809382e-02,1.756739680705888e-02,3.869736754502815e-03,1.598395821005225e-03,0.000000000000000e+00,5.200152361277803e-05
6.178527763018811e-01,3.652817348910118e-02,1.724182578123108e-02,3.797728958192519e-03,1.568836995936350e-03,0.000000000000000e+00,5.103703214581656e-05
6.293627496442619e-01,3.584898749743379e-02,1.692221237685790e-02,3.727058201208738e-03,1.539663807970803e-03,0.000000000000000e+00,5.009018859365411e-05
6.410871421677545e-01,3.518201126449035e-02,1.660844769691648e-02,3.657650821138394e-03,1.511035103001237e-03,0.000000000000000e+00,4.916067036078841e-05
6.530299482851922e-01,3.452735647426840e-02,1.630042483674274e-02,3.589527665375815e-03,1.483069378872981e-03,0.000000000000000e+00,4.824816075384969e-05
6.651952368212859e-01,3.388469158960743e-02,1.599803884760048e-02,3.522651608816181e-03,1.455468533898378e-03,0.000000000000000e+00,4.735234887368891e-05
6.775871523988423e-01,3.325376190090865e-02,1.570118670091674e-02,3.456982451100482e-03,1.428382856579179e-03,0.000000000000000e+00,4.647292950943886e-05
6.902099168508059e-01,3.263441526205237e-02,1.540976725317103e-02,3.392548947535768e-03,1.401924460733227e-03,0.000000000000000e+00,4.560960303451310e-05
7.030678306586062e-01,3.202634965311710e-02,1.512368121142632e-02,3.329265504536986e-03,1.375811303740891e-03,0.000000000000000e+00,4.476207530450636e-05
7.161652744172988e-01,3.142943275178753e-02,1.484283109949032e-02,3.267143410606235e-03,1.350185579436270e-03,0.000000000000000e+00,4.393005755696250e-05
7.295067103280026e-01,3.084346293081680e-02,1.456712122469516e-02,3.206155842013180e-03,1.325153362578267e-03,0.000000000000000e+00,4.311326631297478e-05
7.430966837181371e-01,3.026818671772237e-02,1.429645764528463e-02,3.146289870438158e-03,1.300447803405486e-03,0.000000000000000e+00,4.231142328058615e-05
7.569398245899820e-01,2.970349007067909e-02,1.403074813839728e-02,3.087556166774154e-03,1.276203435384969e-03,0.000000000000000e+00,4.152425525995554e-05
7.710408491980842e-01,2.914906283990422e-02,1.376990216863494e-02,3.029843716669672e-03,1.252520619792367e-03,0.000000000000000e+00,4.075149405025835e-05
7.854045616560509e-01,2.860481024087549e-02,1.351383085720565e-02,2.973207298479210e-03,1.229146882786247e-03,0.000000000000000e+00,3.999287635828939e-05
8.000358555732746e-01,2.807050545453726e-02,1.326244695163061e-02,2.917593121646845e-03,1.206209511215396e-03,0.000000000000000e+00,3.924814370873683e-05
8.149397157221494e-01,2.754600549151319e-02,1.301566479600481e-02,2.863015564671645e-03,1.183803459312317e-03,0.000000000000000e+00,3.851704235609706e-05
8.301212197363457e-01,2.703110378458548e-02,1.277340030180107e-02,2.809435987534208e-03,1.161689853602279e-03,0.000000000000000e+00,3.779932319819978e-05
8.455855398407223e-01,2.652562203203982e-02,1.253557091920780e-02,2.756840160304214e-03,1.139989124634806e-03,0.000000000000000e+00,3.709474169131439e-05
8.613379446134639e-01,2.602940082096088e-02,1.230209560899030e-02,2.705205561438377e-03,1.118791112362904e-03,0.000000000000000e+00,3.640305776680836e-05
8.773838007810473e-01,2.554224141805464e-02,1.207289481486644e-02,2.654505070007857e-03,1.097869811849592e-03,0.000000000000000e+00,3.572403574932953e-05
8.937285750466443e-01,2.506401676759011e-02,1.184789043638694e-02,2.604728968970317e-03,1.077339165704484e-03,0.000000000000000e+00,3.505744427648389e-05
9.103778359525865e-01,2.459455610386306e-02,1.162700580231124e-02,2.555884309990418e-03,1.057284173866466e-03,0.000000000000000e+00,3.440305621998206e-05
9.273372557775270e-01,2.413366380513455e-02,1.141016564446967e-02,2.507927723781053e-03,1.037491006969670e-03,0.000000000000000e+00,3.376064860822712e-05
9.446126124689419e-01,2.368124236003355e-02,1.119729607210321e-02,2.460848615114688e-03,1.018067470492610e-03,0.000000000000000e+00,3.313000255031757e-05
9.622097916116346e-01,2.323708200625038e-02,1.098832454667195e-02,2.414624190210350e-03,9.990939856582251e-04,0.000000000000000e+00,3.251090316143952e-05
9.801347884329106e-01,2.280105290094974e-02,1.078317985712359e-02,2.369244893802363e-03,9.803682418792873e-04,0.000000000000000e+00,3.190313948962259e-05
9.983937098451061e-01,2.237303296642927e-02,1.058179209561376e-02,2.324708055435852e-03,9.619922368789530e-04,0.000000000000000e+00,3.130650444383451e-05
1.016992776526168e+00,2.195283210602053e-02,1.038409263366969e-02,2.280983949526642e-03,9.440420599532687e-04,0.000000000000000e+00,3.072079472338997e-05
