# energy,mu_nu,pi_pi0,pi_pi_pi,pi0_e_nu,pi0_mu_nu,pi_pi0_pi0,e_nu
4.936770000000000e-04,2.964581924411900e+01,9.149661300718583e+00,6.620170139707241e+00,2.626861807961228e+00,1.378817078264222e+00,6.961670705356593e-01,9.487628799940891e-04
5.075361049211501e-04,2.883628333545677e+01,8.899811749359023e+00,6.439392683200881e+00,2.555130679948684e+00,1.341165696178164e+00,6.771567906126952e-01,9.228552991682192e-04
5.217842795968473e-04,2.804885313117815e+01,8.656784749369676e+00,6.263551651342585e+00,2.485358287914984e+00,1.304542446770544e+00,6.586656175307704e-01,8.976551672852695e-04
5.364324464693961e-04,2.728292499880592e+01,8.420393999806990e+00,6.092512246969277e+00,2.417491145364928e+00,1.268919255194038e+00,6.406793762270632e-01,8.731431662927300e-04
5.514918346092703e-04,2.653791178903663e+01,8.190458286979919e+00,5.926143353775264e+00,2.351477226339690e+00,1.234268813231025e+00,6.231842787120648e-01,8.493005056491634e-04
5.669739883231507e-04,2.581324238564066e+01,7.966801345534177e+00,5.764317435800434e+00,2.287265925534505e+00,1.200564558359514e+00,6.061669134999141e-01,8.261089079196568e-04
5.828907760036252e-04,2.510836126765270e+01,7.749251723329761e+00,5.606910439663006e+00,2.224808019505358e+00,1.167780653390694e+00,5.896142353273427e-01,8.035505947646015e-04
5.992543992273213e-04,2.442272808351773e+01,7.537642650008303e+00,5.453801699462068e+00,2.164055628935036e+00,1.135891966662532e+00,5.735135551533730e-01,7.816082733110846e-04
6.160774021084609e-04,2.375581723686514e+01,7.331811909149274e+00,5.304873844276815e+00,2.104962181929515e+00,1.104874052774201e+00,5.578525304320789e-01,7.602651228964172e-04
6.333726809149893e-04,2.310711748359454e+01,7.131601713917337e+00,5.160012708191775e+00,2.047482378316659e+00,1.074703133846600e+00,5.426191556509770e-01,7.395047821736697e-04
6.511534939546713e-04,2.247613153996322e+01,6.936858586105192e+00,5.019107242778825e+00,1.991572154919743e+00,1.045356081294572e+00,5.278017531277700e-01,7.193113365692931e-04
6.694334717387105e-04,2.186237570137599e+01,6.747433238479485e+00,4.882049431969145e+00,1.937188651779287e+00,1.016810398096880e+00,5.133889640584115e-01,6.996693060832490e-04
6.882266274307048e-04,2.126537947158403e+01,6.563180460339346e+00,4.748734209249640e+00,1.884290179297220e+00,9.890442015503039e-01,4.993697398096089e-01,6.805636334222598e-04
7.075473675889283e-04,2.068468520200962e+01,6.383959006200038e+00,4.619059377120517e+00,1.832836186278262e+00,9.620362064946966e-01,4.857333334491065e-01,6.619796724571142e-04
7.274105032101920e-04,2.011984774091920e+01,6.209631487516201e+00,4.492925528752149e+00,1.782787228843955e+00,9.357657089960807e-01,4.724692915072409e-01,6.439031769951538e-04
7.478312610837338e-04,1.957043409217673e+01,6.040064267361817e+00,4.370235971781287e+00,1.734104940195573e+00,9.102125704753197e-01,4.595674459634667e-01,6.263202898593547e-04
7.688252954638560e-04,1.903602308331505e+01,5.875127357986089e+00,4.250896654188065e+00,1.686752001202688e+00,8.853572022701768e-01,4.470179064516979e-01,6.092175322656141e-04
7.904087000702436e-04,1.851620504267139e+01,5.714694321166751e+00,4.134816092197143e+00,1.640692111794881e+00,8.611805506189344e-01,4.348110526785023e-01,5.925817934901154e-04
8.125980204251782e-04,1.801058148533890e+01,5.558642171284350e+00,4.021905300147557e+00,1.595889963134624e+00,8.376640820540556e-01,4.229375270483207e-01,5.764003208188356e-04
8.354102665370927e-04,1.751876480769401e+01,5.406851281043278e+00,3.912077722277599e+00,1.552311210550055e+00,8.147897691947027e-01,4.113882274900726e-01,5.606607097715031e-04
8.588629259401909e-04,1.704037799026525e+01,5.259205289767261e+00,3.805249166372483e+00,1.509922447206847e+00,7.925400769272103e-01,4.001543004796436e-01,5.453508945925058e-04
8.829739771001422e-04,1.657505430871547e+01,5.115591014198921e+00,3.701337739223773e+00,1.468691178499022e+00,7.708979489629201e-01,3.892271342528999e-01,5.304591390014551e-04
9.077619031961033e-04,1.612243705271650e+01,4.975898361735199e+00,3.600263783851287e+00,1.428585797139059e+00,7.498467947630856e-01,3.785983522040394e-01,5.159740271963314e-04
9.332457062896602e-04,1.568217925250007e+01,4.840020246031917e+00,3.501949818439186e+00,1.389575558928208e+00,7.293704768207998e-01,3.682598064642045e-01,5.018844551022901e-04
9.594449218915233e-04,1.525394341287600e+01,4.707852504913012e+00,3.406320476939587e+00,1.351630559188442e+00,7.094532982902282e-01,3.582035716554489e-01,4.881796218594461e-04
9.863796339371715e-04,1.483740125451321e+01,4.579293820521287e+00,3.313302451298012e+00,1.314721709837962e+00,6.900799909536254e-01,3.484219388152553e-01,4.748490215430891e-04
1.014070490182896e-03,1.443223346228568e+01,4.454245641649664e+00,3.222824435256541e+00,1.278820717092707e+00,6.712357035169536e-01,3.389074094869598e-01,4.618824351099972e-04
1.042538718034076e-03,1.403812944049007e+01,4.332612108193231e+00,3.134817069691446e+00,1.243900059776740e+00,6.529059902250886e-01,3.296526899715437e-01,4.492699225646660e-04
1.071806140817790e-03,1.365478707474764e+01,4.214299977664321e+00,3.049212889443538e+00,1.209932968224936e+00,6.350767997879218e-01,3.206506857363911e-01,4.370018153394564e-04
1.101895194512264e-03,1.328191250040777e+01,4.099218553714156e+00,2.965946271600317e+00,1.176893403761726e+00,6.177344646088414e-01,3.118944959767227e-01,4.250687088828082e-04
1.132828944945961e-03,1.291921987727565e+01,3.987279616606386e+00,2.884953385190456e+00,1.144756038740250e+00,6.008656903073591e-01,3.033774083255421e-01,4.134614554498525e-04
1.164631105479513e-03,1.256643117049130e+01,3.878397355589093e+00,2.806172142251870e+00,1.113496237126538e+00,5.844575455278251e-01,2.950928937080303e-01,4.021711570898805e-04
1.197326055184026e-03,1.222327593739218e+01,3.772488303113561e+00,2.729542150236022e+00,1.083090035613898e+00,5.684974520264469e-01,2.870346013364561e-01,3.911891588253080e-04
1.230938857529735e-03,1.188949112019574e+01,3.669471270849227e+00,2.655004665711858e+00,1.053514125252984e+00,5.529731750289854e-01,2.791963538417513e-01,3.805070420168927e-04
1.265495279599276e-03,1.156482084434325e+01,3.569267287445952e+00,2.582502549333970e+00,1.024745833583509e+00,5.378728138517620e-01,2.715721425380336e-01,3.701166179101325e-04
1.301021811840370e-03,1.124901622235004e+01,3.471799537995687e+00,2.511980222040394e+00,9.967631072538563e-01,5.231847927787630e-01,2.641561228164325e-01,3.600099213578825e-04
1.337545688373003e-03,1.094183516301198e+01,3.376993305147315e+00,2.443383622446522e+00,9.695444951153122e-01,5.088978521878680e-01,2.569426096647001e-01,3.501792047143910e-04
1.375094907866707e-03,1.064304218582198e+01,3.284775911829423e+00,2.376660165402435e+00,9.430691317779246e-01,4.950010399193888e-01,2.499260733091629e-01,3.406169318960687e-04
1.413698255003932e-03,1.035240824045407e+01,3.195076665537117e+00,2.311758701681898e+00,9.173167216154030e-01,4.814837028803031e-01,2.431011349756787e-01,3.313157726044361e-04
1.453385322545960e-03,1.006971053117664e+01,3.107826804140171e+00,2.248629478772103e+00,8.922675232067837e-01,4.683354788777473e-01,2.364625627663456e-01,3.222685967068235e-04
1.494186534018288e-03,9.794732346060664e+00,3.022959443170997e+00,2.187224102734123e+00,8.679023342029485e-01,4.555462886755134e-01,2.300052676488070e-01,3.134684687705161e-04
1.536133167032847e-03,9.527262890851407e+00,2.940409524551997e+00,2.127495501104843e+00,8.442024766063868e-01,4.431063282674551e-01,2.237242995550742e-01,3.049086427461540e-04
1.579257377264977e-03,9.267097127376637e+00,2.860113766722971e+00,2.069397886811869e+00,8.211497824529090e-01,4.310060613618753e-01,2.176148435868744e-01,2.965825567963064e-04
1.623592223103481e-03,9.014035616367414e+00,2.782010616130419e+00,2.012886723073854e+00,7.987265798843600e-01,4.192362120711502e-01,2.116722163246232e-01,2.884838282652667e-04
1.669171690992718e-03,8.767884364570786e+00,2.706040200041466e+00,1.957918689259233e+00,7.769156796016227e-01,4.077877578009647e-01,2.058918622371808e-01,2.806062487861985e-04
1.716030721486100e-03,8.528454676037477e+00,2.632144280646330e+00,1.904451647677280e+00,7.557003616875587e-01,3.966519223337267e-01,2.002693501896504e-01,2.729437795218952e-04
1.764205236031021e-03,8.295563007470273e+00,2.560266210414035e+00,1.852444611275950e+00,7.350643627897604e-01,3.858201691008450e-01,1.948003700465340e-01,2.654905465354934e-04
1.813732164505703e-03,8.069030827522448e+00,2.490350888667272e+00,1.801857712221824e+00,7.149918636533068e-01,3.752841946387228e-01,1.894807293676463e-01,2.582408362876014e-04
1.864649473529113e-03,7.848684479938222e+00,2.422344719343003e+00,1.752652171337993e+00,6.954674769939487e-01,3.650359222234411e-01,1.843063501942503e-01,2.511890912563804e-04
1.916996195565600e-03,7.634355050430450e+00,2.356195569906522e+00,1.704790268376526e+00,6.764762357024492e-01,3.550674956792640e-01,1.792732659229552e-01,2.443299056772325e-04
1.970812458846631e-03,7.425878237193350e+00,2.291852731387399e+00,1.658235313102660e+00,6.580035813710080e-01,3.453712733562052e-01,1.743776182649748e-01,2.376580213988184e-04
2.026139518132489e-03,7.223094224951198e+00,2.229266879506741e+00,1.612951617168624e+00,6.400353531330067e-01,3.359398222720543e-01,1.696156542884210e-01,2.311683238522370e-04
2.083019786337583e-03,7.025847562446223e+00,2.168390036865905e+00,1.568904466755455e+00,6.225577768074896e-01,3.267659124143594e-01,1.649837235413602e-01,2.248558381302704e-04
2.141496867043560e-03,6.833987043271975e+00,2.109175536167739e+00,1.526060095961902e+00,6.055574543400817e-01,3.178425111980053e-01,1.604782752534307e-01,2.187157251736939e-04
2.201615587925172e-03,6.647365589960716e+00,2.051577984442110e+00,1.484385660919980e+00,5.890213535322353e-01,3.091627780741385e-01,1.560958556138739e-01,2.127432780617236e-04
2.263422035114516e-03,6.465840141235963e+00,1.995553228248320e+00,1.443849214617338e+00,5.729367980509369e-01,3.007200592863007e-01,1.518331051238939e-01,2.069339184037596e-04
2.326963588529997e-03,6.289271542343800e+00,1.941058319827716e+00,1.404419682407147e+00,5.572914577112157e-01,2.925078827697561e-01,1.476867560213143e-01,2.012831928296588e-04
2.392288958197074e-03,6.117524438378896e+00,1.888051484180570e+00,1.366066838186730e+00,5.420733390240029e-01,2.845199531901028e-01,1.436536297755593e-01,1.957867695758462e-04
2.459448221588649e-03,5.950467170523422e+00,1.836492087041984e+00,1.328761281226677e+00,5.272707760021019e-01,2.767501471173606e-01,1.397306346510397e-01,1.904404351646492e-04
2.528492862013730e-03,5.787971675119304e+00,1.786340603732245e+00,1.292474413632675e+00,5.128724212172103e-01,2.691925083318398e-01,1.359147633370731e-01,1.852400911743067e-04
2.599475808083785e-03,5.629913385496511e+00,1.737558588857790e+00,1.257178418422774e+00,4.988672371011474e-01,2.618412432581889e-01,1.322030906425227e-01,1.801817510971782e-04
2.672451474287042e-03,5.476171136482049e+00,1.690108646839525e+00,1.222846238203303e+00,4.852444874846167e-01,2.546907165241257e-01,1.285927712533898e-01,1.752615372837466e-04
2.747475802701826e-03,5.326627071516545e+00,1.643954403245929e+00,1.189451554427069e+00,4.719937293670162e-01,2.477354466404436e-01,1.250810375516372e-01,1.704756779700683e-04
2.824606305880962e-03,5.181166552307105e+00,1.599060476908934e+00,1.156968767217934e+00,4.591048049109843e-01,2.409701017989806e-01,1.216651974935734e-01,1.658205043863935e-04
2.903902110940030e-03,5.039678070947287e+00,1.555392452801258e+00,1.125372975746336e+00,4.465678336555544e-01,2.343894957853353e-01,1.183426325461720e-01,1.612924479447424e-04
2.985424004883374e-03,4.902053164436748e+00,1.512916855654326e+00,1.094639959140667e+00,4.343732049419330e-01,2.279885840031883e-01,1.151107956797414e-01,1.568880375032761e-04
3.069234481202501e-03,4.768186331535149e+00,1.471601124296639e+00,1.064746157919916e+00,4.225115705461145e-01,2.217624596071911e-01,1.119672094154108e-01,1.526038967053718e-04
3.155397787782710e-03,4.637974951886379e+00,1.431413586692839e+00,1.035668655933308e+00,4.109738375126644e-01,2.157063497414475e-01,1.089094639259294e-01,1.484367413913554e-04
3.243979976154550e-03,4.511319207351344e+00,1.392323435664407e+00,1.007385162793123e+00,3.997511611841968e-01,2.098156118807148e-01,1.059352151883293e-01,1.443833770809145e-04
3.335048952127980e-03,4.388122005488819e+00,1.354300705273315e+00,9.798739967872090e-01,3.888349384211867e-01,2.040857302715099e-01,1.030421831870310e-01,1.404406965242552e-04
3.428674527847962e-03,4.268288905125790e+00,1.317316247850583e+00,9.531140682580971e-01,3.782168010069297e-01,1.985123124703988e-01,1.002281501660172e-01,1.366056773201304e-04
3.524928475311427e-03,4.151728043960265e+00,1.281341711652109e+00,9.270848634359818e-01,3.678886092325913e-01,1.930910859768153e-01,9.749095892873365e-02,1.328753795989112e-04
3.623884581386633e-03,4.038350068140959e+00,1.246349519124623e+00,9.017664287131645e-01,3.578424456574228e-01,1.878178949578232e-01,9.482851118441346e-02,1.292469437689260e-04
3.725618704377119e-03,3.928068063769927e+00,1.212312845765146e+00,8.771393553479061e-01,3.480706090393675e-01,1.826886970623155e-01,9.223876593955803e-02,1.257175883243386e-04
3.830208832173558e-03,3.820797490275658e+00,1.179205599557720e+00,8.531847645859717e-01,3.385656084314015e-01,1.776995603222076e-01,8.971973793334155e-02,1.222846077128875e-04
3.937735142038126e-03,3.716456115605507e+00,1.147002400971644e+00,8.298842931884566e-01,3.293201574390844e-01,1.728466601382484e-01,8.726949611573916e-02,1.189453702618485e-04
4.048280062067224e-03,3.614963953187804e+00,1.115678563505906e+00,8.072200793547931e-01,3.203271686349142e-01,1.681262763481380e-01,8.488616216721204e-02,1.156973161606332e-04
4.161928334379664e-03,3.516243200615314e+00,1.085210074764861e+00,7.851747490301534e-01,3.115797481252098e-01,1.635347903747055e-01,8.256790905881500e-02,1.125379554984751e-04
4.278767080078727e-03,3.420218180003054e+00,1.055573578050686e+00,7.637314025867564e-01,3.030711902653522e-01,1.590686824519610e-01,8.031295965162305e-02,1.094648663557011e-04
4.398885866037912e-03,3.326815279974736e+00,1.026746354458481e+00,7.428736018688614e-01,2.947949725193374e-01,1.547245289268948e-01,7.811958533440284e-02,1.064756929471230e-04
4.522376773561626e-03,3.235962899233351e+00,9.987063054602799e-01,7.225853575915135e-01,2.867447504596928e-01,1.504989996349540e-01,7.598610469848401e-02,1.035681438161268e-04
4.649334468973326e-03,3.147591391672682e+00,9.714319359646509e-01,7.028511170833972e-01,2.789143529039347e-01,1.463888553471884e-01,7.391088224881663e-02,1.007399900780763e-04
4.779856276185373e-03,3.061633012987592e+00,9.449023378388653e-01,6.836557523643808e-01,2.712977771838279e-01,1.423909452871039e-01,7.189232715022387e-02,9.798906371168166e-05
4.914042251306089e-03,2.978021868742258e+00,9.190971738810368e-01,6.649845485486330e-01,2.638891845438298e-01,1.385022047153240e-01,6.992889200789174e-02,9.531325589702711e-05
5.051995259341337e-03,2.896693863856434e+00,8.939966622299126e-01,6.468231925644019e-01,2.566828956651840e-01,1.347196525802050e-01,6.801907168115813e-02,9.271051539897945e-05
5.193821053049293e-03,2.817586653471128e+00,8.695815612003968e-01,6.291577621818288e-01,2.496733863122396e-01,1.310403892326057e-01,6.616140212969478e-02,9.017884699474220e-05
5.339628354009003e-03,2.740639595155911e+00,8.458331545331446e-01,6.119747153403647e-01,2.428552830976509e-01,1.274615942030586e-01,6.435445929119461e-02,8.771630994434592e-05
5.489528935964736e-03,2.665793702421345e+00,8.227332370469621e-01,5.952608797676288e-01,2.362233593632186e-01,1.239805240396392e-01,6.259685798970684e-02,8.532101650290616e-05
5.643637710510088e-03,2.592991599500797e+00,8.002641006829754e-01,5.790034428817362e-01,2.297725311732102e-01,1.205945102048760e-01,6.088725087378141e-02,8.299113047350549e-05
5.802072815177546e-03,2.522177477367006e+00,7.784085209298933e-01,5.631899419693608e-01,2.234978534170884e-01,1.173009570300892e-01,5.922432738360885e-02,8.072486579959206e-05
5.964955704001002e-03,2.453297050949708e+00,7.571497436199469e-01,5.478082546319979e-01,2.173945160186618e-01,1.140973397255879e-01,5.760681274636426e-02,7.852048519581427e-05
6.132411240620621e-03,2.386297517521484e+00,7.364714720853911e-01,5.328465894931151e-01,2.114578402487514e-01,1.109812024452041e-01,5.603346699898535e-02,7.637629881624368e-05
6.304567794001481e-03,2.321127516219981e+00,7.163578546657190e-01,5.182934771590541e-01,2.056832751385447e-01,1.079501564036767e-01,5.450308403763467e-02,7.429066295896370e-05
6.481557336839345e-03,2.257737088675410e+00,6.967934725560085e-01,5.041377614267610e-01,2.000663939908906e-01,1.050018780454443e-01,5.301449069311830e-02,7.226197880603177e-05
6.663515546729020e-03,2.196077640713193e+00,6.777633279870923e-01,4.903685907316035e-01,1.946028909868562e-01,1.021341072634401e-01,5.156654583155114e-02,7.028869119784881e-05
6.850581910172798e-03,2.136101905102381e+00,6.592528327284869e-01,4.769754098287209e-01,1.892885778849506e-01,9.934464566652805e-02,5.015813947958063e-02,6.836928744099663e-05
7.042899829508759e-03,2.077763905321286e+00,6.412477969052716e-01,4.639479517015290e-01,1.841193808104798e-01,9.663135489424801e-02,4.878819197349748e-02,6.650229614862953e-05
7.240616732840917e-03,2.021018920312563e+00,6.237344181203347e-01,4.512762296911735e-01,1.790913371325743e-01,9.399215497758003e-02,4.745565313158105e-02,6.468628611253037e-05
7.443884187055464e-03,1.965823450200677e+00,6.066992708736583e-01,4.389505298409038e-01,1.742005924264930e-01,9.142502274446998e-02,4.615950144904547e-02,6.291986520596733e-05
7.652858014009715e-03,1.912135182945554e+00,5.901292962705266e-01,4.269614034494960e-01,1.694433975188787e-01,8.892799026889606e-02,4.489874331496898e-02,6.120167931650998e-05
7.867698409982844e-03,1.859912961906786e+00,5.740117920107695e-01,4.152996598280173e-01,1.648161056136965e-01,8.649914336228531e-02,4.367241225060651e-02,5.953041130798659e-05
8.088570068480032e-03,1.809116754293555e+00,5.583344026513644e-01,4.039563592543784e-01,1.603151694966533e-01,8.413662010612470e-02,4.247956816850105e-02,5.790478001078672e-05
8.315642306484104e-03,1.759707620476068e+00,5.430851101349324e-01,3.929228061202715e-01,1.559371388159546e-01,8.183860942464131e-02,4.131929665182632e-02,5.632353923973521e-05
8.549089194251441e-03,1.711647684135021e+00,5.282522245768730e-01,3.821905422652460e-01,1.516786574373159e-01,7.960334969645846e-02,4.019070825340833e-02,5.478547683878498e-05
8.789089688751698e-03,1.664900103226158e+00,5.138243753040700e-01,3.717513404928053e-01,1.475364608711990e-01,7.742912740416241e-02,3.909293781388804e-02,5.328941375179593e-05
9.035827770853579e-03,1.619429041737709e+00,4.997905021382992e-01,3.615971982635596e-01,1.435073737703023e-01,7.531427582074510e-02,3.802514379850310e-02,5.183420311868782e-05
9.289492586361895e-03,1.575199642219012e+00,4.861398469176575e-01,3.517203315605955e-01,1.395883074953859e-01,7.325717373191551e-02,3.698650765197934e-02,5.041872939627402e-05
9.550278591013990e-03,1.532177999059317e+00,4.728619452495126e-01,3.421131689223616e-01,1.357762577475657e-01,7.125624419330037e-02,3.597623317103840e-02,4.904190750310235e-05
9.818385699546650e-03,1.490331132496226e+00,4.599466184886541e-01,3.327683456384979e-01,1.320683022652617e-01,6.930995332158177e-02,3.499354589403984e-02,4.770268198764754e-05
1.009401943894779e-02,1.449626963333900e+00,4.473839659344921e-01,3.236786981041567e-01,1.284615985840361e-01,6.741680911864475e-02,3.403769250729041e-02,4.640002621921771e-05
1.037739110601048e-02,1.410034288351617e+00,4.351643572413246e-01,3.148372583284874e-01,1.249533818576001e-01,6.557536032783332e-02,3.310794026756451e-02,4.513294160095411e-05
1.066871792930994e-02,1.371522756383829e+00,4.232784250358567e-01,3.062372485930766e-01,1.215409627383244e-01,6.378419532143816e-02,3.220357644039414e-02,4.390045680432140e-05
1.096822323572782e-02,1.334062845053416e+00,4.117170577363076e-01,2.978720762562483e-01,1.182217253156238e-01,6.204194101856366e-02,3.132390775369698e-02,4.270162702450141e-05
