# energy,k_k,kS_kL,pi_pi_pi0,eta_a,pi0_a,e_e,mu_mu,pi_pi,omega_pi0,etap_a
1.019461000000000e-01,2.483908953147026e-01,2.138568457894141e-01,6.733710954870160e-02,1.378788007445900e-03,0.000000000000000e+00,1.923541908303250e-04,1.479107837977955e-04,3.606550032359869e-05,1.795656195738481e-05,0.000000000000000e+00
1.038452529023839e-01,2.438392408096416e-01,2.099274914578774e-01,6.610300671260785e-02,1.353548883413825e-03,0.000000000000000e+00,1.888356069865139e-04,1.452023405759482e-04,3.540491622552396e-05,1.762753079756680e-05,0.000000000000000e+00
1.057797851056596e-01,2.393739025084634e-01,2.060864955164170e-01,6.489147384705959e-02,1.327888723740637e-03,0.000000000000000e+00,1.853813720544407e-04,1.425434307679966e-04,3.475641324355491e-05,1.730445162326044e-05,0.000000000000000e+00
1.077503556904780e-01,2.349810303526869e-01,2.023091288674030e-01,6.370209819177733e-02,1.304304186270976e-03,0.000000000000000e+00,1.819903092021019e-04,1.399331485029311e-04,3.411977043750870e-05,1.698686731175000e-05,0.000000000000000e+00
1.097576360154976e-01,2.306745660389393e-01,1.985914424148665e-01,6.253447453527393e-02,1.280356331829918e-03,0.000000000000000e+00,1.786612631197494e-04,1.373706044767699e-04,3.349477090787322e-05,1.667556054857039e-05,0.000000000000000e+00
1.118023099461102e-01,2.264497683422321e-01,1.949573547491340e-01,6.138820507680184e-02,1.256891000074236e-03,0.000000000000000e+00,1.753930996262844e-04,1.348549256495796e-04,3.288120172191090e-05,1.636988516335517e-05,0.000000000000000e+00
1.138850740874298e-01,2.222935332750648e-01,1.913834688714001e-01,6.026289929082523e-02,1.233879265781020e-03,0.000000000000000e+00,1.721847052828508e-04,1.323852549480363e-04,3.227885384111405e-05,1.606940865978983e-05,0.000000000000000e+00
1.160066380216201e-01,2.182190515290778e-01,1.878660484150980e-01,5.915817379397071e-02,1.210468603638441e-03,0.000000000000000e+00,1.690349870134950e-04,1.299607509734270e-04,3.168752204998685e-05,1.577487155249316e-05,0.000000000000000e+00
1.181677245496438e-01,2.142218372789153e-01,1.844277235338109e-01,5.807365221441140e-02,1.188975106825501e-03,0.000000000000000e+00,1.659428717327626e-04,1.275805877149904e-04,3.110700488612998e-05,1.548566247240309e-05,0.000000000000000e+00
1.203690699375161e-01,2.102894924190588e-01,1.810463575706245e-01,5.700896506363967e-02,1.167138473275785e-03,0.000000000000000e+00,1.629073059801070e-04,1.252439542685011e-04,3.053710457160364e-05,1.520137222306967e-05,0.000000000000000e+00
1.226114241671442e-01,2.064344970910718e-01,1.777184154291991e-01,5.596374961058496e-02,1.145739754061735e-03,0.000000000000000e+00,1.599272555609824e-04,1.229500545599998e-04,2.997762694554607e-05,1.492270143838780e-05,0.000000000000000e+00
1.248955511918411e-01,2.026526071115153e-01,1.744653082314431e-01,5.493764975803395e-02,1.124758318782796e-03,0.000000000000000e+00,1.570017051945023e-04,1.206981070745764e-04,2.942838139802426e-05,1.464907168520340e-05,0.000000000000000e+00
1.272222291965988e-01,1.989320922327444e-01,1.712660917707792e-01,5.393031592131067e-02,1.103400041007728e-03,0.000000000000000e+00,1.541296581675399e-04,1.184873445901131e-04,2.888918080509437e-05,1.438009580352933e-05,0.000000000000000e+00
1.295922508632097e-01,1.952847603219477e-01,1.681174213792018e-01,5.294140490917543e-02,1.083818664814491e-03,0.000000000000000e+00,1.513101359951566e-04,1.163170139158969e-04,2.835984146505001e-05,1.411643667948051e-05,0.000000000000000e+00
1.320064236403275e-01,1.917065958209848e-01,1.650395548133277e-01,5.197057980690204e-02,1.063885936710746e-03,0.000000000000000e+00,1.485421780872384e-04,1.141863756360128e-04,2.784018303583621e-05,1.385754703967830e-05,0.000000000000000e+00
1.344655700185593e-01,1.881865003642498e-01,1.620126760825240e-01,5.101750986149315e-02,1.044388408767607e-03,0.000000000000000e+00,1.458248414212306e-04,1.120947038574293e-04,2.733002847360817e-05,1.360306058893398e-05,0.000000000000000e+00
1.369705278106814e-01,1.847356457584388e-01,1.590336206892553e-01,5.008187036899513e-02,1.025257412902173e-03,0.000000000000000e+00,1.431572002208571e-04,1.100412859626917e-04,2.682920397241353e-05,1.335360450664822e-05,0.000000000000000e+00
1.395221504370762e-01,1.813502327552693e-01,1.561215551539395e-01,4.916334256387348e-02,1.005771071113249e-03,0.000000000000000e+00,1.405383456407151e-04,1.080254223671379e-04,2.633753890497787e-05,1.310866099511586e-05,0.000000000000000e+00
1.421213072164864e-01,1.780197608332764e-01,1.532577309276545e-01,4.826161351041184e-02,9.879284963699054e-04,0.000000000000000e+00,1.379673854566385e-04,1.060464262805542e-04,2.585486576457317e-05,1.286788348257821e-05,0.000000000000000e+00
1.447688836621845e-01,1.747548000017948e-01,1.504391539780411e-01,4.737637599609662e-02,9.701545012489496e-04,0.000000000000000e+00,1.354434437617235e-04,1.041036234731908e-04,2.538102010794929e-05,1.263186536794831e-05,0.000000000000000e+00
1.474657817836617e-01,1.715517556703627e-01,1.476839583716655e-01,4.650732842695199e-02,9.519698079489471e-04,0.000000000000000e+00,1.329656606679141e-04,1.021963520460551e-04,2.491584049930928e-05,1.240011675234950e-05,0.000000000000000e+00
1.502129203939347e-01,1.684006929573061e-01,1.449744055008509e-01,4.565417472478873e-02,9.345273754176125e-04,0.000000000000000e+00,1.305331920130441e-04,1.003239622054081e-04,2.445916845530918e-05,1.217230973672757e-05,0.000000000000000e+00
1.530112354225793e-01,1.653116124920560e-01,1.423076626159250e-01,4.481662422633238e-02,9.173546198104587e-04,0.000000000000000e+00,1.281452090732380e-04,9.848581604138231e-05,2.401084839106386e-05,1.194900574856768e-05,0.000000000000000e+00
1.558616802345941e-01,1.622811133176067e-01,1.397008869454849e-01,4.399439158419616e-02,9.004918972995138e-04,0.000000000000000e+00,1.258008982805705e-04,9.668128731065086e-05,2.357072756714012e-05,1.172974127384255e-05,0.000000000000000e+00
1.587652259552050e-01,1.592997957225008e-01,1.371372954200530e-01,4.318719666966505e-02,8.842728637557396e-04,0.000000000000000e+00,1.234994609458902e-04,9.490976122306975e-05,2.313865603751937e-05,1.151420607709884e-05,0.000000000000000e+00
1.617228618007201e-01,1.563771216274759e-01,1.346142078847961e-01,4.239476447725773e-02,8.677053071077117e-04,0.000000000000000e+00,1.212401129867122e-04,9.317063423222264e-05,2.271448659851201e-05,1.130293134990703e-05,0.000000000000000e+00
1.647355954155487e-01,1.535098732784750e-01,1.321478573503303e-01,4.161682503103392e-02,8.517966117248458e-04,0.000000000000000e+00,1.190220846600868e-04,9.146331382979588e-05,2.229807473860591e-05,1.109547855006480e-05,0.000000000000000e+00
1.678044532154978e-01,1.506891573060136e-01,1.297223648129004e-01,4.085311329261540e-02,8.361423882514462e-04,0.000000000000000e+00,1.168446203003542e-04,8.978721834371466e-05,2.188927858923230e-05,1.089155415017804e-05,0.000000000000000e+00
1.709304807374644e-01,1.479239259411628e-01,1.273351944926610e-01,4.010336907088907e-02,8.207647069196752e-04,0.000000000000000e+00,1.147069780616949e-04,8.814177673997061e-05,2.148795887643199e-05,1.069166072231475e-05,0.000000000000000e+00
1.741147429956423e-01,1.452111347641759e-01,1.250017049677228e-01,3.936733693336146e-02,8.059636412459135e-04,0.000000000000000e+00,1.126084296653877e-04,8.652642842807355e-05,2.109397887340548e-05,1.049538334668283e-05,0.000000000000000e+00
1.773583248443645e-01,1.425423694722135e-01,1.227068726002817e-01,3.864476611913446e-02,7.908648981782262e-04,0.000000000000000e+00,1.105482601516913e-04,8.494062307006159e-05,2.070720435393102e-05,1.030244431479860e-05,0.000000000000000e+00
1.806623313477042e-01,1.399261000625229e-01,1.204482982084165e-01,3.793541045347265e-02,7.763585367618432e-04,0.000000000000000e+00,1.085257676362628e-04,8.338382039300384e-05,2.032750354663448e-05,1.011331912873375e-05,0.000000000000000e+00
1.840278881559631e-01,1.373594461126326e-01,1.182405130413835e-01,3.723902826393301e-02,7.620927650533446e-04,0.000000000000000e+00,1.065402630710305e-04,8.185549000493238e-05,1.995474709009550e-05,9.927615216858516e-06,0.000000000000000e+00
1.874561418891710e-01,1.348344465802837e-01,1.160693027509063e-01,3.655538229802865e-02,7.480655221179088e-04,0.000000000000000e+00,1.045910700094409e-04,8.035511121414025e-05,1.958880798877487e-05,9.745069823684739e-06,0.000000000000000e+00
1.909482605277311e-01,1.323591152057646e-01,1.139323973948596e-01,3.588423964239813e-02,7.345616520251582e-04,0.000000000000000e+00,1.026775243759979e-04,7.888217285178473e-05,1.922956156974777e-05,9.566132839175040e-06,0.000000000000000e+00
1.945054338103422e-01,1.299307267298093e-01,1.118435454599349e-01,3.522537164345341e-02,7.207994043728662e-04,0.000000000000000e+00,1.007989742400178e-04,7.743617309773430e-05,1.887688544022840e-05,9.390432843227376e-06,0.000000000000000e+00
1.981288736393338e-01,1.275417489547943e-01,1.097892982929948e-01,3.457855382947874e-02,7.075710237210715e-04,0.000000000000000e+00,9.895477959352091e-05,7.601661930960110e-05,1.853065944587132e-05,9.217721237923648e-06,0.000000000000000e+00
2.018198144935519e-01,1.251997639416036e-01,1.077675082299507e-01,3.394356583415443e-02,6.945594843679652e-04,0.000000000000000e+00,9.714431213318604e-05,7.462302785489991e-05,1.819076562983556e-05,9.048423674300789e-06,0.000000000000000e+00
2.055795138489369e-01,1.229021932359800e-01,1.057911831605378e-01,3.332019132147933e-02,6.817748049225903e-04,0.000000000000000e+00,9.536695504629177e-05,7.325492394627658e-05,1.785708819259720e-05,8.882188736582168e-06,0.000000000000000e+00
2.094092526069364e-01,1.206419103842266e-01,1.038475988807039e-01,3.270821791206623e-02,6.694547154665450e-04,0.000000000000000e+00,9.362210280057349e-05,7.191184147975026e-05,1.752951345249711e-05,8.718781218072371e-06,0.000000000000000e+00
2.133103355308983e-01,1.184260890214461e-01,1.019347234176539e-01,3.210743711078532e-02,6.569142885180002e-04,0.000000000000000e+00,9.190916093792266e-05,7.059332287591343e-05,1.720792980701006e-05,8.558603846458269e-06,0.000000000000000e+00
2.172840916905945e-01,1.162522895904308e-01,1.000648639584154e-01,3.151764423573108e-02,6.448479635317149e-04,0.000000000000000e+00,9.022754587185968e-05,6.929891892403647e-05,1.689222769472225e-05,8.401324137223194e-06,0.000000000000000e+00
2.213318749150243e-01,1.141137695250912e-01,9.822598172380202e-02,3.093863834848809e-02,6.329861665974948e-04,0.000000000000000e+00,8.857668468871020e-05,6.802818862902343e-05,1.658229955800422e-05,8.246719551656742e-06,0.000000000000000e+00
2.254550642536547e-01,1.120173160357557e-01,9.641615420038570e-02,3.037022218567227e-02,6.213292578342075e-04,0.000000000000000e+00,8.695601495241764e-05,6.678069906116621e-05,1.627803980636638e-05,8.095171119419630e-06,0.000000000000000e+00
2.296550644462514e-01,1.099606209802924e-01,9.464702561772553e-02,2.981220209172424e-02,6.098821419502678e-04,0.000000000000000e+00,8.536498451292566e-05,6.555602520864712e-05,1.597934478048476e-05,7.946364266804252e-06,0.000000000000000e+00
2.339333064014638e-01,1.079373050012568e-01,9.290720569943293e-02,2.926438795293175e-02,5.986597612639676e-04,0.000000000000000e+00,8.380305131806450e-05,6.435374983273838e-05,1.568611271688462e-05,7.800088447374773e-06,0.000000000000000e+00
2.382912476843241e-01,1.059537897000697e-01,9.119487549522302e-02,2.872659313265871e-02,5.876548164411076e-04,0.000000000000000e+00,8.226968322887816e-05,6.317346332565040e-05,1.539824371327002e-05,7.656704167517094e-06,0.000000000000000e+00
2.427303730128298e-01,1.040078912707396e-01,8.952105198917892e-02,2.819863440775899e-02,5.768423179292575e-04,0.000000000000000e+00,8.076435783832832e-05,6.201476357097922e-05,1.511563969448744e-05,7.515913797180368e-06,0.000000000000000e+00
2.472521947637751e-01,1.020935739994403e-01,8.787495847455533e-02,2.768033190615293e-02,5.662131839296973e-04,0.000000000000000e+00,7.928656229331441e-05,6.087725580670642e-05,1.483820437911182e-05,7.377518127201958e-06,0.000000000000000e+00
2.518582534880071e-01,1.002169135732528e-01,8.625487398560641e-02,2.717150904554567e-02,5.557750593228956e-04,0.000000000000000e+00,7.783579311994827e-05,5.976055249070446e-05,1.456584324664377e-05,7.241858245186490e-06,0.000000000000000e+00
2.565501184352792e-01,9.837584382471672e-02,8.467122204920985e-02,2.667199247326624e-02,5.455411089920600e-04,0.000000000000000e+00,7.641155605202444e-05,5.866427316870189e-05,1.429846350530669e-05,7.108652557155166e-06,0.000000000000000e+00
2.613293880888835e-01,9.656465417253048e-02,8.311380647688614e-02,2.618161200720681e-02,5.355047531165160e-04,0.000000000000000e+00,7.501336586262728e-05,5.758804434466286e-05,1.403597406043278e-05,6.977712587234761e-06,0.000000000000000e+00
2.661976907102414e-01,9.478909302310420e-02,8.158099900933434e-02,2.570020057784228e-02,5.256480424774745e-04,0.000000000000000e+00,7.364074619881784e-05,5.653149935353771e-05,1.377828548342732e-05,6.849361047806761e-06,0.000000000000000e+00
2.711566848936409e-01,9.304720551068545e-02,8.008266168440180e-02,2.522759417131019e-02,5.159561369764440e-04,0.000000000000000e+00,7.229322941934398e-05,5.549427823634018e-05,1.352530998130038e-05,6.723331510871135e-06,0.000000000000000e+00
2.762080601313063e-01,9.133358867256268e-02,7.860914756090748e-02,2.476363177353157e-02,5.064375695578440e-04,0.000000000000000e+00,7.097035643531846e-05,5.447602761750970e-05,1.327696136675600e-05,6.599445652473486e-06,0.000000000000000e+00
2.813535373889964e-01,8.965368126439426e-02,7.715891609222396e-02,2.430815531535391e-02,4.971310787909884e-04,0.000000000000000e+00,6.967167655381088e-05,5.347640058451623e-05,1.303315502882815e-05,6.478008804716652e-06,0.000000000000000e+00
2.865948696923244e-01,8.800563372666281e-02,7.574129807329116e-02,2.386100961869734e-02,4.879579805653165e-04,0.000000000000000e+00,6.839674732429976e-05,5.249505656966692e-05,1.279380790405388e-05,6.358768894258716e-06,0.000000000000000e+00
2.919338427240002e-01,8.638433414475848e-02,7.434716622376414e-02,2.342204234368572e-02,4.789672380748168e-04,0.000000000000000e+00,6.714513438793324e-05,5.153166123407463e-05,1.255883844817360e-05,6.241557202280465e-06,0.000000000000000e+00
2.973722754321997e-01,8.479492830382569e-02,7.297506298492418e-02,2.299110393674472e-02,4.701316677803612e-04,0.000000000000000e+00,6.591641132954608e-05,5.058588635374794e-05,1.232816660834892e-05,6.126662609526107e-06,0.000000000000000e+00
3.029120206502667e-01,8.323566627807193e-02,7.163381652563695e-02,2.256804757964910e-02,4.614503292820143e-04,0.000000000000000e+00,6.471015953238320e-05,4.965740970776485e-05,1.210171379588862e-05,6.013846620755358e-06,0.000000000000000e+00
3.085549657279591e-01,8.170171152312608e-02,7.031479123369684e-02,2.215272913950185e-02,4.529400680060890e-04,0.000000000000000e+00,6.352596803548023e-05,4.874591496849125e-05,1.187940285947340e-05,5.902949609244746e-06,0.000000000000000e+00
3.143030331744552e-01,8.019793263533237e-02,6.901660806804497e-02,2.174500711962821e-02,4.446001231213789e-04,0.000000000000000e+00,6.236343339365193e-05,4.785109159380718e-05,1.166115805887028e-05,5.794244897071358e-06,0.000000000000000e+00
3.201581813133378e-01,7.872267395567727e-02,6.774761964678130e-02,2.134474261136778e-02,4.364019424560524e-04,0.000000000000000e+00,6.122215954004179e-05,4.697263472130415e-05,1.144690503912779e-05,5.687506834392906e-06,0.000000000000000e+00
3.261224049497808e-01,7.727135947670913e-02,6.649965554105701e-02,2.095179924674831e-02,4.283453989124676e-04,0.000000000000000e+00,6.010175765118465e-05,4.611024506441718e-05,1.123657080524300e-05,5.582584389755995e-06,0.000000000000000e+00
3.321977360501644e-01,7.584859553756142e-02,6.527141099803016e-02,2.056604315202501e-02,4.204297319250932e-04,0.000000000000000e+00,5.900184601453763e-05,4.526362881045660e-05,1.103008369729192e-05,5.479736162996605e-06,0.000000000000000e+00
3.383862444343502e-01,7.445281566815859e-02,6.407078870185595e-02,2.018734290206967e-02,4.126697754920285e-04,0.000000000000000e+00,5.792204989843364e-05,4.443249752050435e-05,1.082737336601474e-05,5.378748662726165e-06,0.000000000000000e+00
3.446900384808541e-01,7.307969036369882e-02,6.289005834894731e-02,1.981556947559383e-02,4.050659652695807e-04,0.000000000000000e+00,5.686200142441285e-05,4.361656803114127e-05,1.062837074884745e-05,5.279478995802777e-06,0.000000000000000e+00
3.511112658451550e-01,7.173357783336505e-02,6.172798547307091e-02,1.945059621119104e-02,3.975898093331510e-04,0.000000000000000e+00,5.582133944188940e-05,4.281556235797135e-05,1.043300804639194e-05,5.182171829603510e-06,0.000000000000000e+00
3.576521141913842e-01,7.041299599170840e-02,6.059204706133482e-02,1.909229876418292e-02,3.902329757369603e-04,0.000000000000000e+00,5.479970940511006e-05,4.202920760091038e-05,1.024121869931638e-05,5.086625170753506e-06,0.000000000000000e+00
3.643148119376474e-01,6.911384855831616e-02,5.947492922715562e-02,1.874055506425456e-02,3.830262040561914e-04,0.000000000000000e+00,5.379676325236322e-05,4.125723585120657e-05,1.005293736567797e-05,4.992703822628037e-06,0.000000000000000e+00
3.711016290152290e-01,6.784025897867746e-02,5.837546400486110e-02,1.839524527386471e-02,3.759499388943805e-04,0.000000000000000e+00,5.281215928739670e-05,4.049938410016162e-05,9.868099898660546e-06,4.900639276152485e-06,0.000000000000000e+00
3.780148776419412e-01,6.659082500645415e-02,5.730072561581884e-02,1.805625174741656e-02,3.690158679312986e-04,0.000000000000000e+00,5.184556206300461e-05,3.975539414952113e-05,9.686643324719215e-06,4.810240421526818e-06,0.000000000000000e+00
3.850569131098797e-01,6.536167102264709e-02,5.624379415931612e-02,1.772345899117535e-02,3.621973558169112e-04,0.000000000000000e+00,5.089664226674273e-05,3.902501252350347e-05,9.508505822124721e-06,4.721379344296578e-06,0.000000000000000e+00
3.922301345878532e-01,6.415669835529760e-02,5.520356458814406e-02,1.739675362391895e-02,3.554934569374709e-04,0.000000000000000e+00,4.996507660873454e-05,3.830799038243758e-05,9.333626699900203e-06,4.634275062724041e-06,0.000000000000000e+00
3.995369859387628e-01,6.297458029651574e-02,5.418673005397297e-02,1.707602433830812e-02,3.489209730206487e-04,0.000000000000000e+00,4.905054771152848e-05,3.760408343798016e-05,9.161946377143136e-06,4.548746761006874e-06,0.000000000000000e+00
4.069799565522079e-01,6.181165000249676e-02,5.318674341915917e-02,1.676116186296335e-02,3.424691021207150e-04,0.000000000000000e+00,4.815274400197007e-05,3.691305186988308e-05,8.993406362725433e-06,4.464673417793883e-06,0.000000000000000e+00
4.145615821926023e-01,6.067159864885356e-02,5.220255916582237e-02,1.645205892523517e-02,3.361445017324688e-04,0.000000000000000e+00,4.727135960505105e-05,3.623466024428301e-05,8.827949235364774e-06,4.382262255567174e-06,0.000000000000000e+00
4.222844458630905e-01,5.955317099714515e-02,5.124050990325418e-02,1.614861021465543e-02,3.299301518257581e-04,0.000000000000000e+00,4.640609423970023e-05,3.556867743348528e-05,8.665518624060414e-06,4.301342198176071e-06,0.000000000000000e+00
4.301511786855573e-01,5.845289773284368e-02,5.029440117732153e-02,1.585071234705697e-02,3.236929765814678e-04,0.000000000000000e+00,4.555665311647986e-05,3.491487653721441e-05,8.506059188886735e-06,4.221798741400072e-06,0.000000000000000e+00
4.381644607970314e-01,5.737427119962189e-02,4.936324379290619e-02,1.555826382934950e-02,3.178226352892111e-04,0.000000000000000e+00,4.472274683715313e-05,3.427303480530510e-05,8.349516602138059e-06,4.143827944890921e-06,0.000000000000000e+00
4.463270222627881e-01,5.631610377867112e-02,4.845302923847049e-02,1.527116502493977e-02,3.119396485437086e-04,0.000000000000000e+00,4.390409129608837e-05,3.364293356180653e-05,8.195837529818268e-06,4.067267949616485e-06,0.000000000000000e+00
4.546416440064620e-01,5.527511304463494e-02,4.755789674549379e-02,1.498931811978402e-02,3.061706604589332e-04,0.000000000000000e+00,4.310040758346634e-05,3.302435813047469e-05,8.044969613468910e-06,3.992010422039580e-06,0.000000000000000e+00
