# energy,pi_pi_pi0,pi0_a,pi_pi,eta_a,e_e,mu_mu
5.109989461000004e-01,1.478784879533675e-12,0.000000000000000e+00,3.825951453366338e-14,1.587044990811696e-16,0.000000000000000e+00,2.192541155947888e-16
5.178103313991431e-01,5.951159417254954e-06,0.000000000000000e+00,1.539454406480339e-07,6.387312028770312e-10,0.000000000000000e+00,9.423363229268510e-10
5.247125093898314e-01,8.583340235273099e-06,0.000000000000000e+00,2.219994338584618e-07,9.213094021340873e-10,0.000000000000000e+00,1.358751915318047e-09
5.317066902976619e-01,1.072144188536622e-05,0.000000000000000e+00,2.772544420145419e-07,1.150893672873838e-09,0.000000000000000e+00,1.696741162792649e-09
5.387941004799924e-01,1.262656658852065e-05,0.000000000000000e+00,3.264674152535452e-07,1.355502477308366e-09,0.000000000000000e+00,1.997677016500159e-09
5.459759826409706e-01,1.439840671410182e-05,0.000000000000000e+00,3.722182933190228e-07,1.545833536446093e-09,0.000000000000000e+00,2.277356669212597e-09
5.532535960494295e-01,1.608757708540568e-05,0.000000000000000e+00,4.158168378778728e-07,1.727318370532227e-09,0.000000000000000e+00,2.543799433928338e-09
5.606282167596871e-01,1.772397036486245e-05,0.000000000000000e+00,4.580364403818079e-07,1.903165047242705e-09,0.000000000000000e+00,2.801739920385400e-09
5.681011378352898e-01,1.932703977829247e-05,0.000000000000000e+00,4.993802453014623e-07,2.075461589786108e-09,0.000000000000000e+00,3.054257608932245e-09
5.756736695757374e-01,2.091034981951188e-05,0.000000000000000e+00,5.401989319768812e-07,2.245664229737718e-09,0.000000000000000e+00,3.303498103805084e-09
5.833471397462304e-01,2.248386953721803e-05,0.000000000000000e+00,5.807500727715885e-07,2.414843471926948e-09,0.000000000000000e+00,3.551036634336510e-09
5.911228938104801e-01,2.405524024746151e-05,0.000000000000000e+00,6.212309472446369e-07,2.583820204020246e-09,0.000000000000000e+00,3.798079010642233e-09
5.990022951666220e-01,2.563052690038997e-05,0.000000000000000e+00,6.617979915677838e-07,2.753246162192580e-09,0.000000000000000e+00,4.045580735554057e-09
6.069867253862730e-01,2.721468840557092e-05,0.000000000000000e+00,7.025789732891936e-07,2.923654570198991e-09,0.000000000000000e+00,4.294321566060738e-09
6.150775844567763e-01,2.881188530078247e-05,0.000000000000000e+00,7.436809555793958e-07,3.095492984904498e-09,0.000000000000000e+00,4.544954288290920e-09
6.232762910266744e-01,3.042568847958837e-05,0.000000000000000e+00,7.851957001551938e-07,3.269145844479749e-09,0.000000000000000e+00,4.798037805598142e-09
6.315842826544544e-01,3.205922520479315e-05,0.000000000000000e+00,8.272034466119429e-07,3.444949987741106e-09,0.000000000000000e+00,5.054060282498219e-09
6.400030160606095e-01,3.371528396782635e-05,0.000000000000000e+00,8.697756262613795e-07,3.623206034791931e-09,0.000000000000000e+00,5.313455762388012e-09
6.485339673830592e-01,3.539639153032828e-05,0.000000000000000e+00,9.129768557057214e-07,3.804186583282410e-09,0.000000000000000e+00,5.576616373378622e-09
6.571786324359754e-01,3.710487067501146e-05,0.000000000000000e+00,9.568664308921454e-07,3.988142387537506e-09,0.000000000000000e+00,5.843901474201079e-09
6.659385269720575e-01,3.884288427684667e-05,0.000000000000000e+00,1.001499466907657e-06,4.175307178577158e-09,0.000000000000000e+00,6.115644629855645e-09
6.748151869483043e-01,4.061246948095468e-05,0.000000000000000e+00,1.046927781539563e-06,4.365901245616076e-09,0.000000000000000e+00,6.392159017389100e-09
6.838101687953284e-01,4.241556459980150e-05,0.000000000000000e+00,1.093200590240324e-06,4.560134330568927e-09,0.000000000000000e+00,6.673741676080165e-09
6.929250496902594e-01,4.425403056849032e-05,0.000000000000000e+00,1.140365060102910e-06,4.758208018470618e-09,0.000000000000000e+00,6.960676893618636e-09
7.021614278332865e-01,4.612966827554524e-05,0.000000000000000e+00,1.188466756954161e-06,4.960317520401783e-09,0.000000000000000e+00,7.253238937186348e-09
7.115209227278859e-01,4.804423272829344e-05,0.000000000000000e+00,1.237550010397446e-06,5.166653156213530e-09,0.000000000000000e+00,7.551694281531220e-09
7.210051754647844e-01,4.999944476134348e-05,0.000000000000000e+00,1.287658215147425e-06,5.377401741590925e-09,0.000000000000000e+00,7.856303446381987e-09
7.306158490097071e-01,5.199700081852172e-05,0.000000000000000e+00,1.338834082387302e-06,5.592747586789150e-09,0.000000000000000e+00,8.167322527299119e-09
7.403546284949616e-01,5.403858121013463e-05,0.000000000000000e+00,1.391119851551940e-06,5.812873307014248e-09,0.000000000000000e+00,8.485004483677042e-09
7.502232215149087e-01,5.612585715348542e-05,0.000000000000000e+00,1.444557470507617e-06,6.037960652883628e-09,0.000000000000000e+00,8.809600232711710e-09
7.602233584253714e-01,5.826049683504031e-05,0.000000000000000e+00,1.499188750298637e-06,6.268191210040715e-09,0.000000000000000e+00,9.141359587117201e-09
7.703567926470343e-01,6.044417068058333e-05,0.000000000000000e+00,1.555055499282895e-06,6.503746919480392e-09,0.000000000000000e+00,9.480532066116122e-09
7.806253009728887e-01,6.267855598031318e-05,0.000000000000000e+00,1.612199640458401e-06,6.744810526713359e-09,0.000000000000000e+00,9.827367602979001e-09
7.910306838797745e-01,6.496534098574090e-05,0.000000000000000e+00,1.670663315003367e-06,6.991566061650284e-09,0.000000000000000e+00,1.018211716761241e-08
8.015747658440747e-01,6.730622857204625e-05,0.000000000000000e+00,1.730488974451357e-06,7.244199306359884e-09,0.000000000000000e+00,1.054503331901252e-08
8.122593956616196e-01,6.970293954150565e-05,0.000000000000000e+00,1.791719463455619e-06,7.502898101742828e-09,0.000000000000000e+00,1.091637069953648e-08
8.230864467718529e-01,7.215721562946305e-05,0.000000000000000e+00,1.854398094730231e-06,7.767852667713789e-09,0.000000000000000e+00,1.129638648069828e-08
8.340578175863208e-01,7.467082226314726e-05,0.000000000000000e+00,1.918568717466290e-06,8.039255847359333e-09,0.000000000000000e+00,1.168534076842139e-08
8.451754318215383e-01,7.724555111475680e-05,0.000000000000000e+00,1.984275780291148e-06,8.317303480256241e-09,0.000000000000000e+00,1.208349697426972e-08
8.564412388362933e-01,7.988322248312615e-05,0.000000000000000e+00,2.051564389654388e-06,8.602194661661500e-09,0.000000000000000e+00,1.249112215804772e-08
8.678572139734465e-01,8.258568753256126e-05,0.000000000000000e+00,2.120480364375737e-06,8.894131962410356e-09,0.000000000000000e+00,1.290848734624985e-08
8.794253589062871e-01,8.535483041279305e-05,0.000000000000000e+00,2.191070286969723e-06,9.193321660735975e-09,0.000000000000000e+00,1.333586783010124e-08
8.911477019895062e-01,8.819257028021999e-05,0.000000000000000e+00,2.263381552263803e-06,9.499973923871230e-09,0.000000000000000e+00,1.377354344632909e-08
9.030262986148468e-01,9.110086323751720e-05,0.000000000000000e+00,2.337462413746328e-06,9.814303058797654e-09,0.000000000000000e+00,1.422179884331082e-08
9.150632315714967e-01,9.408170420614192e-05,0.000000000000000e+00,2.413362028014460e-06,1.013652776563760e-08,0.000000000000000e+00,1.468092373483843e-08
9.272606114112828e-01,9.713712874416229e-05,0.000000000000000e+00,2.491130497637424e-06,1.046687130497911e-08,0.000000000000000e+00,1.515121314340113e-08
9.396205768187356e-01,1.002692148200869e-04,0.000000000000000e+00,2.570818912704913e-06,1.080556169753084e-08,0.000000000000000e+00,1.563296763460876e-08
9.521452949860850e-01,1.034800845519160e-04,0.000000000000000e+00,2.652479391292399e-06,1.115283191539418e-08,0.000000000000000e+00,1.612649354414333e-08
9.648369619932552e-01,1.067719059194130e-04,0.000000000000000e+00,2.736165119043243e-06,1.150892004010596e-08,0.000000000000000e+00,1.663210319842981e-08
9.776978031929242e-01,1.101468944565728e-04,0.000000000000000e+00,2.821930388040560e-06,1.187406946627763e-08,0.000000000000000e+00,1.715011513005066e-08
9.907300736007170e-01,1.136073149303932e-04,0.000000000000000e+00,2.909830635119153e-06,1.224852916349289e-08,0.000000000000000e+00,1.768085428878851e-08
1.003936058290599e+00,1.171554830113290e-04,0.000000000000000e+00,2.999922479748433e-06,1.263255381544514e-08,0.000000000000000e+00,1.822465224906094e-08
1.017318072795540e+00,1.207937669401811e-04,0.000000000000000e+00,3.092263761600848e-06,1.302640400796102e-08,0.000000000000000e+00,1.878184741440949e-08
1.030878463513520e+00,1.245245891956479e-04,0.000000000000000e+00,3.186913577906281e-06,1.343034641548643e-08,0.000000000000000e+00,1.935278521961669e-08
1.044619608118942e+00,1.283504281663098e-04,0.000000000000000e+00,3.283932320680707e-06,1.384465399971204e-08,0.000000000000000e+00,1.993781833094941e-08
1.058543915979540e+00,1.322738198304332e-04,0.000000000000000e+00,3.383381713907043e-06,1.426960615983312e-08,0.000000000000000e+00,2.053730684496102e-08
1.072653828578830e+00,1.362973594466434e-04,0.000000000000000e+00,3.485324850737044e-06,1.470548894653029e-08,0.000000000000000e+00,2.115161848622728e-08
1.086951819944200e+00,1.404237032582322e-04,0.000000000000000e+00,3.589826230775226e-06,1.515259532473120e-08,0.000000000000000e+00,2.178112880434150e-08
1.101440397080708e+00,1.446555702136149e-04,0.000000000000000e+00,3.696951797499019e-06,1.561122532173071e-08,0.000000000000000e+00,2.242622137044974e-08
1.116122100410658e+00,1.489957437052377e-04,0.000000000000000e+00,3.806768975863188e-06,1.608168622729625e-08,0.000000000000000e+00,2.308728797356855e-08
1.130999504219037e+00,1.534470733290516e-04,0.000000000000000e+00,3.919346710131407e-06,1.656429279683568e-08,0.000000000000000e+00,2.376472881689220e-08
1.146075217104886e+00,1.580124766665012e-04,0.000000000000000e+00,4.034755501973074e-06,1.705936745757223e-08,0.000000000000000e+00,2.445895271426643e-08
1.161351882438697e+00,1.626949410908422e-04,0.000000000000000e+00,4.153067448859290e-06,1.756724051794477e-08,0.000000000000000e+00,2.517037728697664e-08
1.176832178825897e+00,1.674975255994692e-04,0.000000000000000e+00,4.274356282788182e-06,1.808825033472310e-08,0.000000000000000e+00,2.589942916097382e-08
1.192518820576512e+00,1.724233626738338e-04,0.000000000000000e+00,4.398697409366413e-06,1.862274356344063e-08,0.000000000000000e+00,2.664654416463798e-08
1.208414558181099e+00,1.774756601684315e-04,0.000000000000000e+00,4.526167947270579e-06,1.917107544029003e-08,0.000000000000000e+00,2.741216752715760e-08
1.224522178793009e+00,1.826577032302544e-04,0.000000000000000e+00,4.656846768109482e-06,1.973360995607696e-08,0.000000000000000e+00,2.819675407758354e-08
1.240844506717091e+00,1.879728562500292e-04,0.000000000000000e+00,4.790814536705647e-06,2.031072008454996e-08,0.000000000000000e+00,2.900076844459773e-08
1.257384403904904e+00,1.934245648464952e-04,0.000000000000000e+00,4.928153751812111e-06,2.090278801408377e-08,0.000000000000000e+00,2.982468525701857e-08
1.274144770456527e+00,1.990163578849173e-04,0.000000000000000e+00,5.068948787278254e-06,2.151020538625471e-08,0.000000000000000e+00,3.066898934504965e-08
1.291128545129066e+00,2.047518495309706e-04,0.000000000000000e+00,5.213285933676394e-06,2.213337353828972e-08,0.000000000000000e+00,3.153417594226066e-08
1.308338705851931e+00,2.106347413410951e-04,0.000000000000000e+00,5.361253440398866e-06,2.277270374879975e-08,0.000000000000000e+00,3.242075088827585e-08
1.325778270248988e+00,2.166688243903613e-04,0.000000000000000e+00,5.512941558233405e-06,2.342861744459602e-08,0.000000000000000e+00,3.332923083212816e-08
1.343450296167667e+00,2.228579814388614e-04,0.000000000000000e+00,5.668442582422834e-06,2.410154647552103e-08,0.000000000000000e+00,3.426014343622439e-08
1.361357882215123e+00,2.292061891375924e-04,0.000000000000000e+00,5.827850896213310e-06,2.479193346451462e-08,0.000000000000000e+00,3.521402758085072e-08
1.379504168301548e+00,2.357175202747701e-04,0.000000000000000e+00,5.991263014893555e-06,2.550023201332635e-08,0.000000000000000e+00,3.619143356913387e-08
1.397892336190717e+00,2.423961460634790e-04,0.000000000000000e+00,6.158777630325924e-06,2.622690697469117e-08,0.000000000000000e+00,3.719292333235856e-08
1.416525610057881e+00,2.492463384715309e-04,0.000000000000000e+00,6.330495655968263e-06,2.697243473073608e-08,0.000000000000000e+00,3.821907063552703e-08
1.435407257055093e+00,2.562724725943800e-04,0.000000000000000e+00,6.506520272384033e-06,2.773730347717122e-08,0.000000000000000e+00,3.927046128303190e-08
1.454540587884066e+00,2.634790290719106e-04,0.000000000000000e+00,6.686956973236225e-06,2.852201351340029e-08,0.000000000000000e+00,4.034769332429807e-08
1.473928957376673e+00,2.708705965498883e-04,0.000000000000000e+00,6.871913611759009e-06,2.932707753868504e-08,0.000000000000000e+00,4.145137725923410e-08
1.493575765083184e+00,2.784518741868404e-04,0.000000000000000e+00,7.061500447699225e-06,3.015302095449703e-08,0.000000000000000e+00,4.258213624331781e-08
1.513484455868335e+00,2.862276742071013e-04,0.000000000000000e+00,7.255830194718067e-06,3.100038214684725e-08,0.000000000000000e+00,4.374060629212442e-08
1.533658520515359e+00,2.942029245007361e-04,0.000000000000000e+00,7.455018068241323e-06,3.186971275143466e-08,0.000000000000000e+00,4.492743648508886e-08
1.554101496338051e+00,3.023826712710251e-04,0.000000000000000e+00,7.659181833744836e-06,3.276157813352698e-08,0.000000000000000e+00,4.614328916827645e-08
1.574816967801002e+00,3.107720817301701e-04,0.000000000000000e+00,7.868441855459644e-06,3.367655764261287e-08,0.000000000000000e+00,4.738884015591877e-08
1.595808567148099e+00,3.193764468438476e-04,0.000000000000000e+00,8.082921145479426e-06,3.461524493872921e-08,0.000000000000000e+00,4.866477893045166e-08
1.617079975039401e+00,3.282011841252157e-04,0.000000000000000e+00,8.302745413250637e-06,3.557824833465583e-08,0.000000000000000e+00,4.997180884077520e-08
1.638634921196503e+00,3.372518404789408e-04,0.000000000000000e+00,8.528043115423514e-06,3.656619114521220e-08,0.000000000000000e+00,5.131064729843277e-08
1.660477185056506e+00,3.465340950957875e-04,0.000000000000000e+00,8.758945506039890e-06,3.757971204378543e-08,0.000000000000000e+00,5.268202597138779e-08
1.682610596434702e+00,3.560537623982791e-04,0.000000000000000e+00,8.995586687031448e-06,3.861946542621752e-08,0.000000000000000e+00,5.408669097505365e-08
1.705039036196091e+00,3.658167950379009e-04,0.000000000000000e+00,9.238103658999243e-06,3.968612178217958e-08,0.000000000000000e+00,5.552540306020972e-08
1.727766436935852e+00,3.758292869442870e-04,0.000000000000000e+00,9.486636372243177e-06,4.078036807415937e-08,0.000000000000000e+00,5.699893779741369e-08
1.750796783668884e+00,3.860974764267874e-04,0.000000000000000e+00,9.741327778006896e-06,4.190290812297132e-08,0.000000000000000e+00,5.850808575749395e-08
1.774134114528535e+00,3.966277493287784e-04,0.000000000000000e+00,1.000232387990118e-05,4.305446289908441e-08,0.000000000000000e+00,6.005365268768216e-08
1.797782521474647e+00,4.074266422350306e-04,0.000000000000000e+00,1.026977378546550e-05,4.423577105586167e-08,0.000000000000000e+00,6.163645968291680e-08
1.821746151011041e+00,4.185008457324120e-04,0.000000000000000e+00,1.054382975782465e-05,4.544758937649445e-08,0.000000000000000e+00,6.325734335182275e-08
1.846029204912561e+00,4.298572077241457e-04,0.000000000000000e+00,1.082464726739382e-05,4.669069312932189e-08,0.000000000000000e+00,6.491715597683998e-08
1.870635940961815e+00,4.415027367978020e-04,0.000000000000000e+00,1.111238504358211e-05,4.796587649503994e-08,0.000000000000000e+00,6.661676566794547e-08
1.895570673695729e+00,4.534446056471442e-04,0.000000000000000e+00,1.140720512644110e-05,4.927395300237868e-08,0.000000000000000e+00,6.835705650938026e-08
1.920837775162060e+00,4.656901545478903e-04,0.000000000000000e+00,1.170927291820079e-05,5.061575597236445e-08,0.000000000000000e+00,7.013892869875694e-08
1.946441675685989e+00,4.782468948874000e-04,0.000000000000000e+00,1.201875723463206e-05,5.199213897128199e-08,0.000000000000000e+00,7.196329867789261e-08
1.972386864646929e+00,4.911225127482211e-04,0.000000000000000e+00,1.233583035616959e-05,5.340397627244819e-08,0.000000000000000e+00,7.383109925467014e-08
1.998677891265699e+00,5.043248725453734e-04,0.000000000000000e+00,1.266066807872611e-05,5.485216332690828e-08,0.000000000000000e+00,7.574327971519637e-08
2.025319365402173e+00,5.178620207171629e-04,0.000000000000000e+00,1.299344976412289e-05,5.633761724316063e-08,0.000000000000000e+00,7.770080592548132e-08
2.052315958363579e+00,5.317421894692610e-04,0.000000000000000e+00,1.333435839005792e-05,5.786127727601593e-08,0.000000000000000e+00,7.970466042182486e-08
2.079672403723563e+00,5.459738005716762e-04,0.000000000000000e+00,1.368358059952699e-05,5.942410530577960e-08,0.000000000000000e+00,8.175584248904782e-08
2.107393498152167e+00,5.605654692081906e-04,0.000000000000000e+00,1.404130674960867e-05,6.102708620005338e-08,0.000000000000000e+00,8.385536822566345e-08
2.135484102256883e+00,5.755260078777165e-04,0.000000000000000e+00,1.440773095951786e-05,6.267122861283993e-08,0.000000000000000e+00,8.600427059503246e-08
2.163949141434907e+00,5.908644303469444e-04,0.000000000000000e+00,1.478305115782727e-05,6.435756543302668e-08,0.000000000000000e+00,8.820359946149633e-08
2.192793606736755e+00,6.065899556535510e-04,0.000000000000000e+00,1.516746912874979e-05,6.608715428060622e-08,0.000000000000000e+00,9.045442161043048e-08
2.222022555741393e+00,6.227120121591258e-04,0.000000000000000e+00,1.556119055736865e-05,6.786107805164898e-08,0.000000000000000e+00,9.275782075110305e-08
2.251641113443033e+00,6.392402416508581e-04,0.000000000000000e+00,1.596442507369530e-05,6.968044546998040e-08,0.000000000000000e+00,9.511489750116642e-08
2.281654473149748e+00,6.561845034909112e-04,0.000000000000000e+00,1.637738629542818e-05,7.154639165460934e-08,0.000000000000000e+00,9.752676935154930e-08
2.312067897394059e+00,6.735548788122732e-04,0.000000000000000e+00,1.680029186927788e-05,7.346007869473132e-08,0.000000000000000e+00,9.999457061045284e-08
2.342886718855675e+00,6.913616747597540e-04,0.000000000000000e+00,1.723336351071706e-05,7.542269623465012e-08,0.000000000000000e+00,1.025194523250879e-07
2.374116341296514e+00,7.096154287746325e-04,0.000000000000000e+00,1.767682704200461e-05,7.743546206868220e-08,0.000000000000000e+00,1.051025821797210e-07
2.405762240508206e+00,7.283269129213311e-04,0.000000000000000e+00,1.813091242832611e-05,7.949962274608505e-08,0.000000000000000e+00,1.077451443685248e-07
2.437829965272209e+00,7.475071382543172e-04,0.000000000000000e+00,1.859585381188275e-05,8.161645418604221e-08,0.000000000000000e+00,1.104483394416524e-07
2.470325138332733e+00,7.671673592232732e-04,0.000000000000000e+00,1.907188954375246e-05,8.378726230272720e-08,0.000000000000000e+00,1.132133841228749e-07
2.503253457382630e+00,7.873190781143901e-04,0.000000000000000e+00,1.955926221333668e-05,8.601338358129643e-08,0.000000000000000e+00,1.160415110970395e-07
2.536620696062428e+00,8.079740495254663e-04,0.000000000000000e+00,2.005821867519655e-05,8.829618555833338e-08,0.000000000000000e+00,1.189339687655190e-07
2.570432704972677e+00,8.291442848722799e-04,0.000000000000000e+00,2.056901007307109e-05,9.063706791401135e-08,0.000000000000000e+00,1.218920209677317e-07
2.604695412699788e+00,8.508420569235024e-04,0.000000000000000e+00,2.109189186085927e-05,9.303746295343226e-08,0.000000000000000e+00,1.249169466667160e-07
2.639414826855558e+00,8.730799043612075e-04,0.000000000000000e+00,2.162712382033612e-05,9.549883625029994e-08,0.000000000000000e+00,1.280100395966471e-07
2.674597035130533e+00,8.958706363637831e-04,0.000000000000000e+00,2.217497007536031e-05,9.802268733218059e-08,0.000000000000000e+00,1.311726078700770e-07
2.710248206361430e+00,9.192273372078288e-04,0.000000000000000e+00,2.273569910231872e-05,1.006105503756913e-07,0.000000000000000e+00,1.344059735425713e-07
2.746374591612771e+00,9.431633708853478e-04,0.000000000000000e+00,2.330958373653914e-05,1.032639949115385e-07,0.000000000000000e+00,1.377114721323056e-07
2.782982525272950e+00,9.676923857322853e-04,0.000000000000000e+00,2.389690117438935e-05,1.059846265393199e-07,0.000000000000000e+00,1.410904520920629e-07
