# energy,pi_pi_eta,rho0_a,pi0_pi0_eta,omega_a,a_a,pi_rho
5.109989461000004e-01,6.641658715711132e-13,3.733675859953307e-13,7.680474561711945e-14,3.900698923065350e-14,0.000000000000000e+00,1.343335414390898e-15
5.180192033617304e-01,2.715125368918116e-06,1.525919172607670e-06,3.139750634008267e-07,1.594436412080926e-07,0.000000000000000e+00,5.490650225387940e-09
5.251359070298512e-01,3.918748980499326e-06,2.201758781315793e-06,4.531546554541004e-07,2.300998170818420e-07,0.000000000000000e+00,7.923311809968353e-09
5.323503821141109e-01,4.898330707695443e-06,2.751377486374905e-06,5.664228909834666e-07,2.875862772563227e-07,0.000000000000000e+00,9.902213465946433e-09
5.396639718276403e-01,5.772779276657458e-06,3.241648568753415e-06,6.675307831264571e-07,3.388877529415607e-07,0.000000000000000e+00,1.166792066609869e-08
5.470780378370359e-01,6.587488599769619e-06,3.698101747059956e-06,7.617278466755258e-07,3.866706812210450e-07,0.000000000000000e+00,1.331227129625257e-08
5.545939605158801e-01,7.365510212745283e-06,4.133699175426362e-06,8.516798267360763e-07,4.322891075296097e-07,0.000000000000000e+00,1.488189759125991e-08
5.622131392017422e-01,8.120466271057941e-06,4.556098516465589e-06,9.389619996668221e-07,4.765430561781943e-07,0.000000000000000e+00,1.640435068625918e-08
5.699369924567128e-01,8.861230944831908e-06,4.970285175428624e-06,1.024600553935500e-06,5.199536190038237e-07,0.000000000000000e+00,1.789757211875041e-08
5.777669583315147e-01,9.594001667208391e-06,5.379738255477272e-06,1.109312115394422e-06,5.628845445114363e-07,0.000000000000000e+00,1.937408575691079e-08
5.857044946332446e-01,1.032334264858621e-05,5.787017227528351e-06,1.193624426208137e-06,6.056036422283472e-07,0.000000000000000e+00,2.084310890538759e-08
5.937510791967913e-01,1.105276162078037e-05,6.194086113020035e-06,1.277943045763025e-06,6.483166178799556e-07,0.000000000000000e+00,2.231171897855657e-08
6.019082101599842e-01,1.178505158950260e-05,6.602506579860210e-06,1.362590867423342e-06,6.911871220402067e-07,0.000000000000000e+00,2.378554515603119e-08
6.101774062425208e-01,1.252250472497767e-05,7.013557639693171e-06,1.447832859779079e-06,7.343493874455318e-07,0.000000000000000e+00,2.526920208546655e-08
6.185602070287270e-01,1.326705228051771e-05,7.428314250295019e-06,1.533892246517170e-06,7.779164152630433e-07,0.000000000000000e+00,2.676657256318181e-08
6.270581732542010e-01,1.402035949866780e-05,7.847701361380888e-06,1.620961476927867e-06,8.219855246431151e-07,0.000000000000000e+00,2.828099947023109e-08
6.356728870963964e-01,1.478389200290809e-05,8.272530969420641e-06,1.709209910922204e-06,8.666422790631763e-07,0.000000000000000e+00,2.981541991230636e-08
6.444059524691965e-01,1.555896350192373e-05,8.703528617117638e-06,1.798789334334590e-06,9.119633064333054e-07,0.000000000000000e+00,3.137246151367540e-08
6.532589953215365e-01,1.634677083438331e-05,9.141353324071619e-06,1.889838004904517e-06,9.580183367310331e-07,0.000000000000000e+00,3.295451429551040e-08
6.622336639401269e-01,1.714842024495960e-05,9.586612607483817e-06,1.982483697756830e-06,1.004871739633820e-06,0.000000000000000e+00,3.456378337651867e-08
6.713316292563369e-01,1.796494746146079e-05,1.003987358927132e-05,2.076846027834170e-06,1.052583690349616e-06,0.000000000000000e+00,3.620232944183898e-08
6.805545851572939e-01,1.879733328042984e-05,1.050167163905473e-05,2.173038246674843e-06,1.101211125735652e-06,0.000000000000000e+00,3.787210022213782e-08
6.899042488012560e-01,1.964651583566282e-05,1.097251709146163e-05,2.271168660560829e-06,1.150808444454588e-06,0.000000000000000e+00,3.957495527907528e-08
6.993823609373181e-01,2.051340039468653e-05,1.145290109163853e-05,2.371341770973366e-06,1.201428079299287e-06,0.000000000000000e+00,4.131268550280253e-08
7.089906862295099e-01,2.139886730851318e-05,1.194329995704294e-05,2.473659189354270e-06,1.253120961960639e-06,0.000000000000000e+00,4.308702937051263e-08
7.187310135853467e-01,2.230377850999623e-05,1.244417878159673e-05,2.578220383886792e-06,1.305936889172368e-06,0.000000000000000e+00,4.489968628705909e-08
7.286051564888932e-01,2.322898289839111e-05,1.295599438807958e-05,2.685123304212497e-06,1.359924856087314e-06,0.000000000000000e+00,4.675232715934442e-08
7.386149533384039e-01,2.417532084809401e-05,1.347919771509759e-05,2.794464908640796e-06,1.415133328268403e-06,0.000000000000000e+00,4.864660355074364e-08
7.487622677886014e-01,2.514362804823526e-05,1.401423599212773e-05,2.906341604053489e-06,1.471610453782097e-06,0.000000000000000e+00,5.058415526426491e-08
7.590489890976579e-01,2.613473877945848e-05,1.456155476933258e-05,3.020849620763714e-06,1.529404253971965e-06,0.000000000000000e+00,5.256661688684205e-08
7.694770324789427e-01,2.714948875205553e-05,1.512159925620047e-05,3.138085339154387e-06,1.588562788450364e-06,0.000000000000000e+00,5.459562343705965e-08
7.800483394576024e-01,2.818871757756023e-05,1.569481576834036e-05,3.258145582611124e-06,1.649134297090359e-06,0.000000000000000e+00,5.667281517578836e-08
7.907648782320404e-01,2.925327096083175e-05,1.628165288690711e-05,3.381127869637042e-06,1.711167317223270e-06,0.000000000000000e+00,5.879984178160321e-08
8.016286440403618e-01,3.034400266764474e-05,1.688256249455455e-05,3.507130637961013e-06,1.774710818088246e-06,0.000000000000000e+00,6.097836679209722e-08
8.126416595318532e-01,3.146177628314118e-05,1.749800059371269e-05,3.636253442112401e-06,1.839814292128286e-06,0.000000000000000e+00,6.321007075500467e-08
8.238059751435656e-01,3.260746681114807e-05,1.812842825035964e-05,3.768597143500732e-06,1.906527849816522e-06,0.000000000000000e+00,6.549665432250070e-08
8.351236694820707e-01,3.378196213809365e-05,1.877431253122576e-05,3.904264083050432e-06,1.974902301543852e-06,0.000000000000000e+00,6.783984110294209e-08
8.465968497104636e-01,3.498616440069774e-05,1.943612707389778e-05,4.043358234554364e-06,2.044989234764044e-06,0.000000000000000e+00,7.024138028754164e-08
8.582276519406790e-01,3.622099126424711e-05,2.011435274232361e-05,4.185985352540622e-06,2.116841086282749e-06,0.000000000000000e+00,7.270304909002268e-08
8.700182416312003e-01,3.748737711992423e-05,2.080947823280118e-05,4.332253103805195e-06,2.190511210068132e-06,0.000000000000000e+00,7.522665503076373e-08
8.819708139902316e-01,3.878627422559712e-05,2.152200062537126e-05,4.482271204990057e-06,2.266053932291639e-06,0.000000000000000e+00,7.781403809167955e-08
8.940875943844070e-01,4.011865378645589e-05,2.225242598473037e-05,4.636151548482690e-06,2.343524622827052e-06,0.000000000000000e+00,8.046707276382301e-08
9.063708387531174e-01,4.148550699995568e-05,2.300126984298286e-05,4.794008323287419e-06,2.422979759632091e-06,0.000000000000000e+00,8.318766980520316e-08
9.188228340285276e-01,4.288784608400312e-05,2.376905753438222e-05,4.955958130366725e-06,2.504476978196674e-06,0.000000000000000e+00,8.597777822400406e-08
9.314458985613647e-01,4.432670526656757e-05,2.455632495003349e-05,5.122120091698544e-06,2.588075126435104e-06,0.000000000000000e+00,8.883938747887698e-08
9.442423825525554e-01,4.580314175209781e-05,2.536361894857651e-05,5.292615960849019e-06,2.673834318253543e-06,0.000000000000000e+00,9.177452898317291e-08
9.572146684907940e-01,4.731823667203109e-05,2.619149775058007e-05,5.467570239676385e-06,2.761815986079433e-06,0.000000000000000e+00,9.478527782962827e-08
9.703651715961210e-01,4.887309602861845e-05,2.704053138023800e-05,5.647110285712198e-06,2.852082931582610e-06,0.000000000000000e+00,9.787375452822854e-08
9.836963402695968e-01,5.046885162451264e-05,2.791130209925685e-05,5.831366420671454e-06,2.944699377992826e-06,0.000000000000000e+00,1.010421266805142e-07
9.972106565491521e-01,5.210666201405654e-05,2.880440483464509e-05,6.020472033156517e-06,3.039731021703823e-06,0.000000000000000e+00,1.042926106448777e-07
1.010910636571701e+00,5.378771342726344e-05,2.972044760188846e-05,6.214563684109102e-06,3.137245080749909e-06,0.000000000000000e+00,1.076274731946797e-07
1.024798831041605e+00,5.551322070616064e-05,3.066005192480445e-05,6.413781210007869e-06,3.237310335518182e-06,0.000000000000000e+00,1.110490331702535e-07
1.038877825705567e+00,5.728442824128339e-05,3.162385325320541e-05,6.618267840421523e-06,3.339997198185102e-06,0.000000000000000e+00,1.145596631290982e-07
1.053150241834058e+00,5.910261090858338e-05,3.261250135828087e-05,6.828170302525866e-06,3.445377758414962e-06,0.000000000000000e+00,1.181617909980747e-07
1.067618736709352e+00,6.096907501740078e-05,3.362666060245955e-05,7.043638930070821e-06,3.553525831303938e-06,0.000000000000000e+00,1.218579017309885e-07
1.082286004120263e+00,6.288515928215953e-05,3.466701065369764e-05,7.264827775356222e-06,3.664517008730181e-06,0.000000000000000e+00,1.256505389745091e-07
1.097154774863691e+00,6.485223580414914e-05,3.573424681315584e-05,7.491894716629680e-06,3.778428711153668e-06,0.000000000000000e+00,1.295423064679821e-07
1.112227817253041e+00,6.687171104886039e-05,3.682908039299135e-05,7.725001564179191e-06,3.895340239942014e-06,0.000000000000000e+00,1.335358700021064e-07
1.127507937633643e+00,6.894502685700968e-05,3.795223913788842e-05,7.964314183596642e-06,4.015332830291701e-06,0.000000000000000e+00,1.376339593784445e-07
1.142997980905242e+00,7.107366144525335e-05,3.910446764273855e-05,8.210002613083687e-06,4.138489704808606e-06,0.000000000000000e+00,1.418393698869689e-07
1.158700831051674e+00,7.325913044470414e-05,4.028652778819410e-05,8.462241179725848e-06,4.264896127806417e-06,0.000000000000000e+00,1.461549640496864e-07
1.174619411677809e+00,7.550298793476295e-05,4.149919917563708e-05,8.721208617629904e-06,4.394639460377327e-06,0.000000000000000e+00,1.505836733854905e-07
1.190756686553883e+00,7.780682753587689e-05,4.274327955593975e-05,8.987088190896430e-06,4.527809216285431e-06,0.000000000000000e+00,1.551285001977469e-07
1.207115660167299e+00,8.017228349550790e-05,4.401958526810983e-05,9.260067819208340e-06,4.664497118730181e-06,0.000000000000000e+00,1.597925193860093e-07
1.223699378282012e+00,8.260103179184623e-05,4.532895168224231e-05,9.540340193720345e-06,4.804797154055702e-06,0.000000000000000e+00,1.645788802831358e-07
1.240510928505596e+00,8.509479127452555e-05,4.667223364698834e-05,9.828102912975779e-06,4.948805625145944e-06,0.000000000000000e+00,1.694908085189829e-07
1.257553440864110e+00,8.765532481111895e-05,4.805030594172266e-05,1.012355862216408e-05,5.096621231170277e-06,0.000000000000000e+00,1.745316079117602e-07
1.274830088384850e+00,9.028444047011526e-05,4.946406368792593e-05,1.042691513976547e-05,5.248345118143629e-06,0.000000000000000e+00,1.797046623880446e-07
1.292344087687119e+00,9.298399269278191e-05,5.091442268763875e-05,1.073838559838670e-05,5.404080939744421e-06,0.000000000000000e+00,1.850134379323778e-07
1.310098699581101e+00,9.575588355130789e-05,5.240232022785451e-05,1.105818857833888e-05,5.563934920136885e-06,0.000000000000000e+00,1.904614845672992e-07
1.328097229674972e+00,9.860206400041359e-05,5.392871540750506e-05,1.138654825508778e-05,5.728015917925724e-06,0.000000000000000e+00,1.960524383645976e-07
1.346343028990348e+00,1.015245351511495e-04,5.549458959037274e-05,1.172369453991013e-05,5.896435491273439e-06,0.000000000000000e+00,2.017900234885064e-07
1.364839494586187e+00,1.045253495859040e-04,5.710094688766416e-05,1.206986322325167e-05,6.069307964209734e-06,0.000000000000000e+00,2.076780542715072e-07
1.383590070191268e+00,1.076066126734729e-04,5.874881464582262e-05,1.242529613749779e-05,6.246750494160675e-06,0.000000000000000e+00,2.137204372954759e-07
1.402598246845348e+00,1.107704839669193e-04,6.043924393956413e-05,1.279024131156759e-05,6.428883140724514e-06,0.000000000000000e+00,2.199211730836897e-07
1.421867563549142e+00,1.140191785646373e-04,6.217331007010164e-05,1.316495312839401e-05,6.615828935719819e-06,0.000000000000000e+00,2.262843590246938e-07
1.441401607923219e+00,1.173549685327289e-04,6.395211306849677e-05,1.354969248740669e-05,6.807713954530368e-06,0.000000000000000e+00,2.328141914849669e-07
1.461204016875961e+00,1.207801843753741e-04,6.577677820405968e-05,1.394472696370344e-05,7.004667388770403e-06,0.000000000000000e+00,2.395149678817239e-07
1.481278477280689e+00,1.242972165318046e-04,6.764845649769213e-05,1.435033098290377e-05,7.206821620292638e-06,0.000000000000000e+00,2.463910889648903e-07
1.501628726662102e+00,1.279085168951767e-04,6.956832524004735e-05,1.476678598455743e-05,7.414312296560765e-06,0.000000000000000e+00,2.534470611347759e-07
1.522258553892135e+00,1.316166003599399e-04,7.153758851435559e-05,1.519438059608696e-05,7.627278407406832e-06,0.000000000000000e+00,2.606874987956828e-07
1.543171799895387e+00,1.354240464113132e-04,7.355747772374126e-05,1.563341082503427e-05,7.845862363089036e-06,0.000000000000000e+00,2.681171267456209e-07
1.564372358364234e+00,1.393335007548374e-04,7.562925212283033e-05,1.608418023891359e-05,8.070210060678782e-06,0.000000000000000e+00,2.757407826022460e-07
1.585864176483771e+00,1.433476769686010e-04,7.775419935342289e-05,1.654700015998964e-05,8.300470981021477e-06,0.000000000000000e+00,2.835634192650871e-07
1.607651255666707e+00,1.474693582076338e-04,7.993363598306333e-05,1.702218984767247e-05,8.536798277222907e-06,0.000000000000000e+00,2.915901074140549e-07
1.629737652298364e+00,1.517013989034276e-04,8.216890783903358e-05,1.751007669994003e-05,8.779348849810499e-06,0.000000000000000e+00,2.998260380456191e-07
1.652127478491906e+00,1.560467265793780e-04,8.446139079075092e-05,1.801099645717546e-05,9.028283432161515e-06,0.000000000000000e+00,3.082765250770672e-07
1.674824902853945e+00,1.605083436649272e-04,8.681249142172185e-05,1.852529338755587e-05,9.283766677428575e-06,0.000000000000000e+00,3.169470079062975e-07
1.697834151260664e+00,1.650893293263085e-04,8.922364742958006e-05,1.905332050558710e-05,9.545967246974109e-06,0.000000000000000e+00,3.258430540543677e-07
1.721159507644605e+00,1.697928413641810e-04,9.169632817965340e-05,1.959543978183339e-05,9.815057900323557e-06,0.000000000000000e+00,3.349703618563274e-07
1.744805314792264e+00,1.746221181554219e-04,9.423203526017929e-05,2.015202237509093e-05,1.009121558664574e-05,0.000000000000000e+00,3.443347631738189e-07
1.768775975152645e+00,1.795804805916981e-04,9.683230303869654e-05,2.072344884667423e-05,1.037462153776790e-05,0.000000000000000e+00,3.539422261420442e-07
1.793075951656918e+00,1.846713341449711e-04,9.949869921909048e-05,2.131010939467339e-05,1.066546136273033e-05,0.000000000000000e+00,3.637988579505041e-07
1.817709768549350e+00,1.898981708840670e-04,1.022328253987406e-04,2.191240407693779e-05,1.096392514388455e-05,0.000000000000000e+00,3.739109076568372e-07
1.842682012229631e+00,1.952645715750158e-04,1.050363176251685e-04,2.253074305879080e-05,1.127020753453690e-05,0.000000000000000e+00,3.842847690329682e-07
1.867997332106793e+00,2.007742078617337e-04,1.079108469515487e-04,2.316554684725962e-05,1.158450785813740e-05,0.000000000000000e+00,3.949269833643885e-07
1.893660441464847e+00,2.064308444753832e-04,1.108581199903850e-04,2.381724653388821e-05,1.190703020901196e-05,0.000000000000000e+00,4.058442416070227e-07
1.919676118340319e+00,2.122383414452972e-04,1.138798794646260e-04,2.448628403497820e-05,1.223798355463377e-05,0.000000000000000e+00,4.170433887021866e-07
1.946049206411837e+00,2.182006564035431e-04,1.169779047554202e-04,2.517311235325426e-05,1.257758183942724e-05,0.000000000000000e+00,4.285314262181238e-07
1.972784615901944e+00,2.243218469357464e-04,1.201540124456769e-04,2.587819586778284e-05,1.292604409009591e-05,0.000000000000000e+00,4.403155151081658e-07
1.999887324491296e+00,2.306060729068933e-04,1.234100568585289e-04,2.660201058148771e-05,1.328359452246270e-05,0.000000000000000e+00,4.524029787277379e-07
2.027362378245428e+00,2.370575989609943e-04,1.267479305897435e-04,2.734504439808342e-05,1.365046264980812e-05,0.000000000000000e+00,4.648013058750365e-07
2.055214892554234e+00,2.436807969683502e-04,1.301695650330577e-04,2.810779740288806e-05,1.402688339268981e-05,0.000000000000000e+00,4.775181538536214e-07
2.083450053084381e+00,2.504801485208709e-04,1.336769308973573e-04,2.889078214750846e-05,1.441309719018397e-05,0.000000000000000e+00,4.905613515550002e-07
2.112073116744780e+00,2.574602475913454e-04,1.372720387145427e-04,2.969452393796490e-05,1.480935009211806e-05,0.000000000000000e+00,5.039389025591361e-07
2.141089412665341e+00,2.646258031529876e-04,1.409569393368591e-04,3.051956112634881e-05,1.521589389443707e-05,0.000000000000000e+00,5.176589882506211e-07
2.170504343189161e+00,2.719816418791767e-04,1.447337243499011e-04,3.136644540448125e-05,1.563298626981738e-05,0.000000000000000e+00,5.317299709480846e-07
2.200323384878355e+00,2.795327108804141e-04,1.486045262056905e-04,3.223574207487458e-05,1.606089086840719e-05,0.000000000000000e+00,5.461603970442245e-07
2.230552089533695e+00,2.872840805268148e-04,1.525715194323677e-04,3.312803042582290e-05,1.649987743597069e-05,0.000000000000000e+00,5.609590001536259e-07
2.261196085228260e+00,2.952409472454578e-04,1.566369208219109e-04,3.404390403995572e-05,1.695022193329650e-05,0.000000000000000e+00,5.761347042653456e-07
2.292261077355294e+00,3.034086364565158e-04,1.608029897749792e-04,3.498397110244476e-05,1.741220665682268e-05,0.000000000000000e+00,5.916966268969976e-07
2.323752849690446e+00,3.117926055587102e-04,1.650720286726746e-04,3.594885473014219e-05,1.788612036042641e-05,0.000000000000000e+00,6.076540822468511e-07
2.355677265468620e+00,3.203984468853395e-04,1.694463832775338e-04,3.693919332374048e-05,1.837225837832115e-05,0.000000000000000e+00,6.240165843402109e-07
2.388040268475601e+00,3.292318908014851e-04,1.739284430926288e-04,3.795564090934376e-05,1.887092274899845e-05,0.000000000000000e+00,6.407938501660666e-07
2.420847884154692e+00,3.382988088911508e-04,1.785206416948406e-04,3.899886746459840e-05,1.938242234014644e-05,0.000000000000000e+00,6.579958027997651e-07
2.454106220728550e+00,3.476052171179362e-04,1.832254570404926e-04,4.006955930315469e-05,1.990707297447032e-05,0.000000000000000e+00,6.756325745071154e-07
2.487821470336432e+00,3.571572791017270e-04,1.880454117410594e-04,4.116841937418346e-05,2.044519755633445e-05,0.000000000000000e+00,6.937145098251001e-07
2.521999910187067e+00,3.669613094059797e-04,1.929830733065201e-04,4.229616763630827e-05,2.099712619913851e-05,0.000000000000000e+00,7.122521686139924e-07
2.556647903727367e+00,3.770237769390550e-04,1.980410543538068e-04,4.345354147952042e-05,2.156319635333349e-05,0.000000000000000e+00,7.312563290753712e-07
2.591771901827192e+00,3.873513083223235e-04,2.032220127776491e-04,4.464129610238353e-05,2.214375293497566e-05,0.000000000000000e+00,7.507379907301772e-07
2.627378443980391e+00,3.979506914323006e-04,2.085286518809714e-04,4.586020487340665e-05,2.273914845470889e-05,0.000000000000000e+00,7.707083773505684e-07
2.663474159522349e+00,4.088288788993194e-04,2.139637204618447e-04,4.711105972103770e-05,2.334974314705641e-05,0.000000000000000e+00,7.911789391852575e-07
2.700065768864255e+00,4.199929916867048e-04,2.195300128538319e-04,4.839467154848335e-05,2.397590509989648e-05,0.000000000000000e+00,8.121613550288550e-07
2.737160084744327e+00,4.314503227654505e-04,2.252303689164001e-04,4.971187062890623e-05,2.461801038398514e-05,0.000000000000000e+00,8.336675380004729e-07
2.774764013496234e+00,4.432083409010862e-04,2.310676739718893e-04,5.106350700559161e-05,2.527644318238092e-05,0.000000000000000e+00,8.557096366915789e-07
2.812884556334931e+00,4.552746944144607e-04,2.370448586853443e-04,5.245045094719139e-05,2.595159591961520e-05,0.000000000000000e+00,8.783000376385602e-07
2.851528810660171e+00,4.676572150492012e-04,2.431648988833261e-04,5.387359326392674e-05,2.664386939044224e-05,0.000000000000000e+00,9.014513678216259e-07
2.890703971377922e+00,4.803639218547679e-04,2.494308153076005e-04,5.533384575700570e-05,2.735367288799033e-05,0.000000000000000e+00,9.251764970617222e-07
2.930417332239935e+00,4.934030251527514e-04,2.558456732994102e-04,5.683214171083234e-05,2.808142433112484e-05,0.000000000000000e+00,9.494885403055491e-07
