# energy,k_k,kS_kL,pi_pi_pi0,eta_a,pi0_a,e_e,mu_mu,pi_pi,omega_pi0,etap_a
5.109989461000004e-01,9.696403501687524e-13,6.615120270301673e-13,3.308887360357191e-13,5.169928971558501e-15,0.000000000000000e+00,0.000000000000000e+00,1.842732467668507e-15,2.364220117158410e-16,7.297973271892801e-17,0.000000000000000e+00
5.181080768387457e-01,3.977546117009986e-06,2.721697046870587e-06,1.361216877199726e-06,2.127124787608487e-08,0.000000000000000e+00,0.000000000000000e+00,4.814068418281355e-09,9.724019266928885e-10,3.002547146764336e-10,0.000000000000000e+00
5.253161113819829e-01,5.734489385568519e-06,3.928991251719717e-06,1.964732838151861e-06,3.070665935985536e-08,0.000000000000000e+00,0.000000000000000e+00,6.945961517866073e-09,1.403245997197561e-09,4.334199585634657e-10,0.000000000000000e+00
5.326244257013886e-01,7.176421360784839e-06,4.912103653160013e-06,2.455966525144559e-06,3.838975970031273e-08,0.000000000000000e+00,0.000000000000000e+00,8.679482997679996e-09,1.753734387921166e-09,5.418400837088194e-10,0.000000000000000e+00
5.400344149114629e-01,8.471146426831273e-06,5.790149084188353e-06,2.894524395626657e-06,4.525166094383481e-08,0.000000000000000e+00,0.000000000000000e+00,1.022562228375146e-08,2.066468933002802e-09,6.386596725537070e-10,0.000000000000000e+00
5.475474935358483e-01,9.678723576637424e-06,6.608589314309219e-06,3.303160526736091e-06,5.164780137470863e-08,0.000000000000000e+00,0.000000000000000e+00,1.166492282383737e-08,2.357712484298073e-09,7.288964611917495e-10,0.000000000000000e+00
5.551650957773545e-01,1.082745282751158e-05,7.390521101549692e-06,3.693429217570990e-06,5.775868395011739e-08,0.000000000000000e+00,0.000000000000000e+00,1.303827481325352e-08,2.635722147722578e-09,8.150985872997071e-10,0.000000000000000e+00
5.628886757917386e-01,1.193850368644373e-05,8.149606465273494e-06,4.072158100637840e-06,6.369099095467191e-08,0.000000000000000e+00,0.000000000000000e+00,1.436982927429220e-08,2.905375864924873e-09,8.987720288179226e-10,0.000000000000000e+00
5.707197079652955e-01,1.302891495329513e-05,8.894740436399996e-06,4.443794811337928e-06,6.951423846883667e-08,0.000000000000000e+00,0.000000000000000e+00,1.567530616771134e-08,3.169849801708543e-09,9.808979925277071e-10,0.000000000000000e+00
5.786596871963090e-01,1.410779146469194e-05,9.632137260276658e-06,4.811445228304918e-06,7.527699229945202e-08,0.000000000000000e+00,0.000000000000000e+00,1.696567062370019e-08,3.431360530153451e-09,1.062161868189362e-09,0.000000000000000e+00
5.867101291804203e-01,1.518183971587652e-05,1.036637595330218e-05,5.177396545319368e-06,8.101503797793809e-08,0.000000000000000e+00,0.000000000000000e+00,1.824898525104551e-08,3.691538967609123e-09,1.143068590055085e-09,0.000000000000000e+00
5.948725706999641e-01,1.625621501468437e-05,1.110097799338471e-05,5.543406350237431e-06,8.675589526304624e-08,0.000000000000000e+00,0.000000000000000e+00,1.953143391620617e-08,3.951637046602924e-09,1.224006381675162e-09,0.000000000000000e+00
6.031485699173323e-01,1.733502328419638e-05,1.183874936055024e-05,5.910873922430780e-06,9.252149322686900e-08,0.000000000000000e+00,0.000000000000000e+00,2.081792843169758e-08,4.212650183786997e-09,1.305284482339247e-09,0.000000000000000e+00
6.115397066724176e-01,1.842163522533590e-05,1.258199503351999e-05,6.280947437427894e-06,9.832984432543524e-08,0.000000000000000e+00,0.000000000000000e+00,2.211248825216399e-08,4.475393926608743e-09,1.387156849974465e-09,0.000000000000000e+00
6.200475827841962e-01,1.951889168040032e-05,1.333265922090939e-05,6.654594085223349e-06,1.041961403650923e-07,0.000000000000000e+00,0.000000000000000e+00,2.341848880965377e-08,4.740554083885562e-09,1.469837581661735e-09,0.000000000000000e+00
6.286738223565049e-01,2.062924325443942e-05,1.409241975799006e-05,7.032647634592497e-06,1.101334952067785e-07,0.000000000000000e+00,0.000000000000000e+00,2.473882995230117e-08,5.008720729547082e-09,1.553511384403593e-09,0.000000000000000e+00
6.374200720880739e-01,2.175484687169057e-05,1.486275549487514e-05,7.415841704678832e-06,1.161534622929661e-07,0.000000000000000e+00,0.000000000000000e+00,2.607605374489345e-08,5.280411985850814e-09,1.638340946150075e-09,0.000000000000000e+00
6.462880015868714e-01,2.289763748909473e-05,1.564499331654008e-05,7.804833659557487e-06,1.222664115687028e-07,0.000000000000000e+00,0.000000000000000e+00,2.743242904235640e-08,5.556091100656419e-09,1.724472217099997e-09,0.000000000000000e+00
6.552793036888220e-01,2.405937789491232e-05,1.644034357191378e-05,8.200222165920424e-06,1.284818008655295e-07,0.000000000000000e+00,0.000000000000000e+00,2.881001360490570e-08,5.836178992465197e-09,1.812038241642508e-09,0.000000000000000e+00
6.643956947809598e-01,2.524169783016245e-05,1.724992667704232e-05,8.602560357385738e-06,1.348083819645127e-07,0.000000000000000e+00,0.000000000000000e+00,3.021070063957073e-08,6.121063652884052e-09,1.901162054988926e-09,0.000000000000000e+00
6.736389151290759e-01,2.644612422762065e-05,1.807479246919861e-05,9.012365884091924e-06,1.412543603686101e-07,0.000000000000000e+00,0.000000000000000e+00,3.163625429792173e-08,6.411107320824304e-09,1.991958945679664e-09,0.000000000000000e+00
6.830107292099253e-01,2.767410268846828e-05,1.891593641118868e-05,9.430128710283354e-06,1.478275123817506e-07,0.000000000000000e+00,0.000000000000000e+00,3.308833718641069e-08,6.706652045333763e-09,2.084538172164837e-09,0.000000000000000e+00
6.925129260480553e-01,2.892701642012194e-05,1.977431195204406e-05,9.856317255055338e-06,1.545352873350392e-07,0.000000000000000e+00,0.000000000000000e+00,3.456853199797654e-08,7.008024062660398e-09,2.179004300440052e-09,0.000000000000000e+00
7.021473195573196e-01,3.020620090491254e-05,2.065083979691610e-05,1.029138329508080e-05,1.613848777387530e-07,0.000000000000000e+00,0.000000000000000e+00,3.607835874880902e-08,7.315537287045973e-09,2.275458270605872e-09,0.000000000000000e+00
7.119157488871438e-01,3.151295450910059e-05,2.154641617496692e-05,1.073576592933389e-05,1.683832874942098e-07,0.000000000000000e+00,0.000000000000000e+00,3.761928868322662e-08,7.629496129789415e-09,2.373998269979444e-09,0.000000000000000e+00
7.218200787736092e-01,3.284854822615865e-05,2.246191970798280e-05,1.118989482419731e-05,1.755373790679618e-07,0.000000000000000e+00,0.000000000000000e+00,3.919275562038677e-08,7.950197802744276e-09,2.474720506895127e-09,0.000000000000000e+00
7.318621998954183e-01,3.421423462294328e-05,2.339821638203234e-05,1.165419290025172e-05,1.828539156815072e-07,0.000000000000000e+00,0.000000000000000e+00,4.080016531424542e-08,8.277934221587085e-09,2.577719775419269e-09,0.000000000000000e+00
7.420440292348162e-01,3.561125366087804e-05,2.435616376373644e-05,1.212907858147237e-05,1.903396011515728e-07,0.000000000000000e+00,0.000000000000000e+00,4.244290325439364e-08,8.612993595175097e-09,2.683089949763213e-09,0.000000000000000e+00
7.523675104435295e-01,3.704083750891953e-05,2.533727880909125e-05,1.261496769829545e-05,1.980011015810190e-07,0.000000000000000e+00,0.000000000000000e+00,4.412234123168211e-08,8.955661766382052e-09,2.790924406879141e-09,0.000000000000000e+00
7.628346142137996e-01,3.850421682640758e-05,2.634496724445062e-05,1.311227511462589e-05,2.058450808542216e-07,0.000000000000000e+00,0.000000000000000e+00,4.583984291671924e-08,9.306223354499816e-09,2.901316364240080e-09,0.000000000000000e+00
7.734473386545757e-01,4.000262448833496e-05,2.737721979338359e-05,1.362141613302732e-05,2.138782160417887e-07,0.000000000000000e+00,0.000000000000000e+00,4.759676864320500e-08,9.664962737969200e-09,3.014359212718337e-09,0.000000000000000e+00
7.842077096729417e-01,4.153729879377672e-05,2.843469966751098e-05,1.414280772048433e-05,2.221072171471822e-07,0.000000000000000e+00,0.000000000000000e+00,4.939447954604152e-08,1.003216490772502e-08,3.130146819645182e-09,0.000000000000000e+00
7.951177813608508e-01,4.310948606984222e-05,2.951827378459845e-05,1.467686958816180e-05,2.305388508045397e-07,0.000000000000000e+00,0.000000000000000e+00,5.123434117236757e-08,1.040811621502612e-08,3.248773747286520e-09,0.000000000000000e+00
8.061796363872391e-01,4.472044506296481e-05,3.062881786033290e-05,1.522402515173682e-05,2.391799467651050e-07,0.000000000000000e+00,0.000000000000000e+00,5.311772665936617e-08,1.079310503273949e-08,3.370335466343303e-09,0.000000000000000e+00
8.173953863955953e-01,4.637144885765158e-05,3.176721793159341e-05,1.578470239359833e-05,2.480374166288474e-07,0.000000000000000e+00,0.000000000000000e+00,5.504601955395804e-08,1.118742234526857e-08,3.494928549989515e-09,0.000000000000000e+00
8.287671724070608e-01,4.806378699300044e-05,3.293437181234514e-05,1.635933464410345e-05,2.571182691608611e-07,0.000000000000000e+00,0.000000000000000e+00,5.702061633491914e-08,1.159136227937671e-08,3.622650847408704e-09,0.000000000000000e+00
8.402971652291381e-01,4.979876679210317e-05,3.413119144219419e-05,1.694836129586140e-05,2.664296153039191e-07,0.000000000000000e+00,0.000000000000000e+00,5.904292868653073e-08,1.200522258585189e-08,3.753601620223899e-09,0.000000000000000e+00
8.519875658700858e-01,5.157771683172465e-05,3.535860379826566e-05,1.755222846247468e-05,2.759786813947405e-07,0.000000000000000e+00,0.000000000000000e+00,6.111438556384219e-08,1.242930508013930e-08,3.887881741179358e-09,0.000000000000000e+00
8.638406059590775e-01,5.340198842894954e-05,3.661755207081961e-05,1.817138959114620e-05,2.857728235953587e-07,0.000000000000000e+00,0.000000000000000e+00,6.323643508243980e-08,1.286391604861967e-08,4.025593821031248e-09,0.000000000000000e+00
8.758585481722074e-01,5.527373586648888e-05,3.790899639900534e-05,1.880630603694361e-05,2.958195332014593e-07,0.000000000000000e+00,0.000000000000000e+00,6.541054625985786e-08,1.330936662605217e-08,4.166842331937331e-09,0.000000000000000e+00
8.880436866644215e-01,5.719490184115977e-05,3.923391592701152e-05,1.945744760520868e-05,3.061264416080761e-07,0.000000000000000e+00,0.000000000000000e+00,6.763821063112652e-08,1.376597314876528e-08,4.311733731837722e-09,0.000000000000000e+00
9.003983475074583e-01,5.916569031825964e-05,4.059330971764256e-05,2.012529306754426e-05,3.167013378943326e-07,0.000000000000000e+00,0.000000000000000e+00,6.992094375718252e-08,1.423405748742189e-08,4.460376581030002e-09,0.000000000000000e+00
9.129248891338830e-01,6.118755815158940e-05,4.198819762808649e-05,2.081033065595072e-05,3.275521739285009e-07,0.000000000000000e+00,0.000000000000000e+00,7.226028664179619e-08,1.471394736256573e-08,4.612881661920047e-09,0.000000000000000e+00
9.256257027872976e-01,6.326199382772613e-05,4.341962110532308e-05,2.151305853897889e-05,3.386870682042314e-07,0.000000000000000e+00,0.000000000000000e+00,7.465780707014191e-08,1.520597664565006e-08,4.769362085855602e-09,0.000000000000000e+00
9.385032129788161e-01,6.539051761696529e-05,4.488864402231387e-05,2.223398528318720e-05,3.501143147151649e-07,0.000000000000000e+00,0.000000000000000e+00,7.711510088005834e-08,1.571048564783112e-08,4.929933374485005e-09,0.000000000000000e+00
9.515598779498888e-01,6.757468231136504e-05,4.639635456783591e-05,2.297363030270939e-05,3.618423972798545e-07,0.000000000000000e+00,0.000000000000000e+00,7.963379317531373e-08,1.622782139846224e-08,5.094713612043610e-09,0.000000000000000e+00
9.647981901415670e-01,6.981607489025678e-05,4.794386575924873e-05,2.373252429934171e-05,3.738799924632534e-07,0.000000000000000e+00,0.000000000000000e+00,8.221553948874903e-08,1.675833791493638e-08,5.263823538539368e-09,0.000000000000000e+00
9.782206766702947e-01,7.211631898201528e-05,4.953231634075126e-05,2.451120969522401e-05,3.862359737549915e-07,0.000000000000000e+00,0.000000000000000e+00,8.486202690196253e-08,1.730239646528271e-08,5.437386643272293e-09,0.000000000000000e+00
9.918298998103207e-01,7.447707535150472e-05,5.116287144726405e-05,2.531024105991112e-05,3.989194207669952e-07,0.000000000000000e+00,0.000000000000000e+00,8.757497512717713e-08,1.786036582471997e-08,5.615529266142185e-09,0.000000000000000e+00
1.005628457482822e+00,7.690004319833700e-05,5.283672346066074e-05,2.613018553339496e-05,4.119396324955570e-07,0.000000000000000e+00,0.000000000000000e+00,9.035613755606753e-08,1.843262252719750e-08,5.798380698372456e-09,0.000000000000000e+00
1.019618983751831e+00,7.938696111726088e-05,5.455509385507714e-05,2.697162324643928e-05,4.253061302730020e-07,0.000000000000000e+00,0.000000000000000e+00,9.320730227958544e-08,1.901955111280863e-08,5.986073282963020e-09,0.000000000000000e+00
1.033804149327065e+00,8.193960781571878e-05,5.631923367300187e-05,2.783514773942044e-05,4.390286637805339e-07,0.000000000000000e+00,0.000000000000000e+00,9.613029308218891e-08,1.962154437183692e-08,6.178742515149327e-09,0.000000000000000e+00
1.048186662073746e+00,8.455980535014103e-05,5.813042441692497e-05,2.872136638072342e-05,4.531172153026582e-07,0.000000000000000e+00,0.000000000000000e+00,9.912697041333717e-08,2.023900358608828e-08,6.376527143113145e-09,0.000000000000000e+00
1.062769267529517e+00,8.724941950471069e-05,5.998997884666434e-05,2.963090078561958e-05,4.675820165945330e-07,0.000000000000000e+00,0.000000000000000e+00,1.021992323386363e-07,2.087233876807053e-08,6.579569260241337e-09,0.000000000000000e+00
1.077554749428553e+00,9.001036100015402e-05,6.189860798959610e-05,3.056438723644671e-05,4.824335522917784e-07,0.000000000000000e+00,0.000000000000000e+00,1.053490154726110e-07,2.152196889850109e-08,6.788014391946927e-09,0.000000000000000e+00
1.092545930232954e+00,9.284458681449406e-05,6.385577534066586e-05,3.152247710482127e-05,4.976825665858711e-07,0.000000000000000e+00,0.000000000000000e+00,1.085782958947108e-07,2.218832216255449e-08,7.002011649268441e-09,0.000000000000000e+00
1.107745671671541e+00,9.575410057639435e-05,6.586510069062499e-05,3.250583727653288e-05,5.133400679958775e-07,0.000000000000000e+00,0.000000000000000e+00,1.118890900498408e-07,2.287183618519949e-08,7.221713808069508e-09,0.000000000000000e+00
1.123156875286139e+00,9.874095476487578e-05,6.792824353895843e-05,3.351515057970355e-05,5.294173380404285e-07,0.000000000000000e+00,0.000000000000000e+00,1.152834556344156e-07,2.357295826592235e-08,7.447277411192383e-09,0.000000000000000e+00
1.138782482985469e+00,1.018072530119360e-04,7.004668682432890e-05,3.455111621673335e-05,5.459259460997258e-07,0.000000000000000e+00,0.000000000000000e+00,1.187634924686803e-07,2.429214561308362e-08,7.678862874578243e-09,0.000000000000000e+00
1.154625477606739e+00,1.049551506119367e-04,7.222195026509393e-05,3.561445020050166e-05,5.628777526613672e-07,0.000000000000000e+00,0.000000000000000e+00,1.223313433558081e-07,2.502986557811382e-08,7.916634594793593e-09,0.000000000000000e+00
1.170688883485048e+00,1.081868559315269e-04,7.445559184796898e-05,3.670588579524706e-05,5.802849173453006e-07,0.000000000000000e+00,0.000000000000000e+00,1.259891949280639e-07,2.578659588971384e-08,8.160761058075905e-09,0.000000000000000e+00
1.186975767030719e+00,1.115046318139911e-04,7.674920953992380e-05,3.782617396250715e-05,5.981599041920863e-07,0.000000000000000e+00,0.000000000000000e+00,1.297392784801361e-07,2.656282488819085e-08,8.411414951003482e-09,0.000000000000000e+00
1.203489237314653e+00,1.149107959055163e-04,7.910444185448539e-05,3.897608381246316e-05,6.165154897007315e-07,0.000000000000000e+00,0.000000000000000e+00,1.335838707895438e-07,2.735905176002769e-08,8.668773272887101e-09,0.000000000000000e+00
1.220232446661837e+00,1.184077231418279e-04,8.152296888991541e-05,4.015640306100103e-05,6.353647801706984e-07,0.000000000000000e+00,0.000000000000000e+00,1.375252949238607e-07,2.817578677275482e-08,8.933017449974883e-09,0.000000000000000e+00
1.237208591253103e+00,1.219978482705121e-04,8.400651339136865e-05,4.136793849277033e-05,6.547212150722182e-07,0.000000000000000e+00,0.000000000000000e+00,1.415659210343284e-07,2.901355151016390e-08,9.204333451556078e-09,0.000000000000000e+00
1.254420911735259e+00,1.256836663733912e-04,8.655684122862994e-05,4.261151643049620e-05,6.745985757155552e-07,0.000000000000000e+00,0.000000000000000e+00,1.457081671352774e-07,2.987287910787829e-08,9.482911884466085e-09,0.000000000000000e+00
1.271872693839712e+00,1.294677343938197e-04,8.917576343806306e-05,4.388798321077321e-05,6.950109937636758e-07,0.000000000000000e+00,0.000000000000000e+00,1.499544998686211e-07,3.075431448926827e-08,9.768948131144309e-09,0.000000000000000e+00
1.289567269009691e+00,1.333526726894110e-04,9.186513773774256e-05,4.519820566654783e-05,7.159729541700469e-07,0.000000000000000e+00,0.000000000000000e+00,1.543074352525369e-07,3.165841460167637e-08,1.006264250240402e-08,0.000000000000000e+00
1.307508015036206e+00,1.373411660382769e-04,9.462686925930872e-05,4.654307161647442e-05,7.374993155021892e-07,0.000000000000000e+00,0.000000000000000e+00,1.587695394133102e-07,3.258574865289452e-08,1.036420033676969e-08,0.000000000000000e+00
1.325698356702841e+00,1.414359644892675e-04,9.746291175225332e-05,4.792349036130883e-05,7.596053173975295e-07,0.000000000000000e+00,0.000000000000000e+00,1.633434292991662e-07,3.353689834781148e-08,1.067383212716267e-08,0.000000000000000e+00
1.344141766439534e+00,1.456398878529519e-04,1.003752687601107e-04,4.934039318748502e-05,7.823065882324685e-07,0.000000000000000e+00,0.000000000000000e+00,1.680317733747757e-07,3.451245812512791e-08,1.099175364993258e-08,0.000000000000000e+00
1.362841764985434e+00,1.499555247456882e-04,1.033660900411401e-04,5.079473387800140e-05,8.056191549731268e-07,0.000000000000000e+00,0.000000000000000e+00,1.728372922949730e-07,3.551303539401281e-08,1.131818609627170e-08,0.000000000000000e+00
1.381801922060999e+00,1.543847614709456e-04,1.064376050846459e-04,5.228748923072547e-05,8.295594522628095e-07,0.000000000000000e+00,0.000000000000000e+00,1.777627595560865e-07,3.653925077055516e-08,1.165335620606885e-08,0.000000000000000e+00
1.401025857049426e+00,1.589317958234300e-04,1.095919787439128e-04,5.381965958420780e-05,8.541443262795993e-07,0.000000000000000e+00,0.000000000000000e+00,1.828110021231276e-07,3.759173831383975e-08,1.199749640425745e-08,0.000000000000000e+00
1.420517239687577e+00,1.635998689513328e-04,1.128314291584428e-04,5.539226935107963e-05,8.793910586727704e-07,0.000000000000000e+00,0.000000000000000e+00,1.879849010309401e-07,3.867114576145675e-08,1.235084493970967e-08,0.000000000000000e+00
1.440279790766507e+00,1.683921647449644e-04,1.161582310346743e-04,5.700636755909089e-05,9.053173731102253e-07,0.000000000000000e+00,0.000000000000000e+00,1.932873919572563e-07,3.977813476422959e-08,1.271364602672658e-08,0.000000000000000e+00
1.460317282841742e+00,1.733119456206414e-04,1.195747170098689e-04,5.866302839982825e-05,9.319414445408700e-07,0.000000000000000e+00,0.000000000000000e+00,1.987214657654518e-07,4.091338111992418e-08,1.308614998917171e-08,0.000000000000000e+00
1.480633540953436e+00,1.783625557865884e-04,1.230832783401820e-04,6.036335178513592e-05,9.592819103965496e-07,0.000000000000000e+00,0.000000000000000e+00,2.042901690146291e-07,4.207757500567793e-08,1.346861340729388e-08,0.000000000000000e+00
1.501232443356553e+00,1.835474218227342e-04,1.266863667901807e-04,6.210846391124431e-05,9.873578819108381e-07,0.000000000000000e+00,0.000000000000000e+00,2.099966044344921e-07,4.327142120886327e-08,1.386129926715050e-08,0.000000000000000e+00
1.522117922261198e+00,1.888700545745141e-04,1.303864972846723e-04,6.389951783059376e-05,1.016188947986357e-06,0.000000000000000e+00,0.000000000000000e+00,2.158439313623055e-07,4.449563935607513e-08,1.426447707655090e-08,0.000000000000000e+00
1.543293964583260e+00,1.943340509232593e-04,1.341862489018928e-04,6.573769403132258e-05,1.045795197231603e-06,0.000000000000000e+00,0.000000000000000e+00,2.218353661390540e-07,4.575096413990630e-08,1.467842306044482e-08,0.000000000000000e+00
1.564764612705481e+00,1.999430958516168e-04,1.380882661977654e-04,6.762420102436949e-05,1.076197232400678e-06,0.000000000000000e+00,0.000000000000000e+00,2.279741824617282e-07,4.703814554314682e-08,1.510342034167390e-08,0.000000000000000e+00
